,time,ch1,ch2,ch3,ch4,ch5,ch6,tag,ID,Repeticion
1493,0,-447.9328369618379,-391.81931754334346,-238.79531555773065,-291.6347890357447,-2746.0913955479336,201.10095812056625,4,2,1
1494,3,79.90700678816211,204.18995980040654,-80.83535462023065,244.5163340111303,-459.45077054793364,-107.57677625443375,4,2,1
1495,7,365.0476317881621,259.24245003478154,210.47519225476935,458.0202402611303,1976.3617294520664,-218.06139539505875,4,2,1
1496,11,-310.1320557118379,-603.5573546527185,78.57675475476935,-271.4289784888697,-896.7632705479336,213.32703233931625,4,2,1
1497,15,-507.3195557118379,-485.13779898865596,-230.10097962023065,-359.5395741919947,-2851.5132705479336,246.22888780806625,4,2,1
1498,19,-17.839086961837893,99.91920784728154,-140.02285462023065,154.1706308861303,-990.6538955479336,-47.40587781693375,4,2,1
1499,23,395.2195067881621,355.75709847228154,159.28964537976935,515.3078379173803,1870.7211044520664,-244.45885633255875,4,2,1
1500,27,-182.2375244618379,-508.16013785584346,120.26230162976935,-161.1902089576197,-213.31014554793364,149.89295030806625,4,2,1
1501,31,-545.3625244618379,-565.894634926156,-212.46523743273065,-429.2322011451197,-2853.8101455479336,273.49793077681625,4,2,1
1502,35,-125.50705571183789,-11.057354652718459,-229.25137024523065,48.26804299550531,-1478.8257705479336,3.488897573691247,4,2,1
1503,42,382.4343505381621,408.90968636290654,103.78964537976935,510.5021738548803,1595.9554794520664,-255.67955945755875,4,2,1
1504,46,-27.585180711837893,-344.85813590271846,202.65097350476935,-11.455833957619689,490.29922945206636,63.14587999556625,4,2,1
1505,50,-564.4718994618379,-644.997418129281,-143.24160462023065,-474.1592030982447,-2722.0288955479336,292.34070421431625,4,2,1
1506,54,-218.9172119618379,-119.48557730896846,-204.06094055773065,-52.22536520761969,-1936.6382705479336,58.96619249556625,4,2,1
1507,58,337.3952880381621,413.64821175353154,67.35605162976935,489.9833750267553,1147.0648544520664,-231.42785047318375,4,2,1
1508,62,95.61794428816211,-182.65159293396846,216.44198912976935,141.7431406517553,1110.8929794520664,-27.937616098183753,4,2,1
1509,66,-533.0461182118379,-676.4240538714685,-88.65859680773065,-468.1689687232447,-2461.7007705479336,307.60681749556625,4,2,1
1510,70,-303.4289307118379,-215.75462027771846,-226.83730774523065,-132.8481679419947,-2281.0913955479336,121.70740343306625,4,2,1
1511,74,258.4265380381621,360.49586800353154,9.756442254769354,418.8600840111303,622.8304794520664,-199.53185437943375,4,2,1
1512,78,227.3132567881621,-5.961163246468459,224.17636412976935,286.2470469017553,1595.8617294520664,-104.80529187943375,4,2,1
1513,63,-482.2414307118379,-689.432720863656,-47.821682745230646,-444.0066152076197,-2035.4038955479336,292.49695421431625,4,2,1
1514,67,-382.8000244618379,-311.80003043396846,-245.68008118273065,-225.7866445044947,-2578.4820205479336,169.45056749556625,4,2,1
1515,71,172.4851317881621,282.91286019103154,-65.59121399523065,331.7553476830053,40.142979452066356,-148.65929578568375,4,2,1
1516,75,322.8445067881621,155.39625862853154,205.26620787976935,398.6764902611303,1878.2523544520664,-172.70983289505875,4,2,1
1517,79,-397.5265869618379,-658.0285460589685,21.736911004769354,-380.2595448951197,-1485.3413955479336,250.67712999556625,4,2,1
1518,83,-453.1398682118379,-398.63657828553096,-257.07949524523065,-306.4541249732447,-2767.6226455479336,209.10291124556625,4,2,1
1519,87,56.25856928816211,180.09474495665654,-110.09414368273065,234.0558847923803,-533.9038955479336,-102.70421766068375,4,2,1
1520,91,372.9812255381621,270.08302620665654,208.91073912976935,473.8901133080053,1973.8929794520664,-220.56481336380875,4,2,1
1521,95,-291.6711182118379,-596.6506163714685,71.96152037976935,-293.7583241919947,-815.2476455479336,204.99011827681625,4,2,1
1522,99,-498.9367432118379,-483.32725211365596,-228.40176087023065,-373.3752675513697,-2865.0757705479336,244.39587999556625,4,2,1
1523,150,-27.518774461837893,90.97853401915654,-145.00722962023065,143.1064219017553,-1072.0913955479336,-34.73253797318375,4,2,1
1524,154,393.6101317881621,369.81642464415654,170.17441100476935,524.1813730736303,1829.5492294520664,-244.10119031693375,4,2,1
1525,158,-149.9601807118379,-468.99985953553096,143.97909850476935,-136.7373280982447,-101.51327054793364,128.21179796431625,4,2,1
1526,162,-551.1945557118379,-574.1871153949062,-192.37051087023065,-429.7910390357447,-2852.0288955479336,278.05798937056625,4,2,1
1527,166,-141.8468994618379,-30.88328238709346,-180.54629212023065,45.94358010488031,-1556.8570205479336,16.520147573691247,4,2,1
1528,170,381.2077880381621,407.97096565978154,116.68612975476935,514.3691172142553,1536.6586044520664,-248.81749891068375,4,2,1
1529,174,-14.284399461837893,-324.98753043396846,192.79355162976935,8.772437526755311,602.2836044520664,42.04578233931625,4,2,1
1530,178,-556.2492432118379,-639.856548988656,-152.13808899523065,-477.5119863013697,-2714.1382705479336,300.07410265181625,4,2,1
1531,182,-228.2140869618379,-132.53904410584346,-216.57754212023065,-68.34084372324469,-2004.8257705479336,78.09900499556625,4,2,1
1532,186,334.2663817881621,402.38283089415654,55.912692254769354,451.0241465111303,1063.4242294520664,-232.47838758255875,4,2,1
1533,201,130.1726317881621,-150.46506949646846,214.36386412976935,173.4155039330053,1175.3773544520664,-33.01134656693375,4,2,1
1534,205,-528.4640869618379,-675.1723448870935,-94.29140930773065,-456.3449941138697,-2413.8257705479336,305.59509874556625,4,2,1
1535,209,-315.6984619618379,-232.33958121521846,-230.10097962023065,-149.9919667701197,-2316.3882705479336,127.87634874556625,4,2,1
1536,213,248.8835692881621,347.88942269103154,-10.024807745230646,401.7162851830053,540.0336044520664,-189.49596570755875,4,2,1
1537,217,243.1843505381621,22.17970589415654,224.80136412976935,310.6999277611303,1636.8929794520664,-120.87609266068375,4,2,1
1538,221,-486.5773682118379,-696.071148598031,-50.213284307730646,-447.0019765357447,-1960.6070205479336,282.03650499556625,4,2,1
1539,225,-397.2804932118379,-334.28587027771846,-247.40078430773065,-244.8974843482447,-2602.7320205479336,173.74207140181625,4,2,1
1540,229,170.1609130381621,280.52125862853154,-60.562893682730646,330.7270273705053,-40.091395547933644,-145.99938367630875,4,2,1
1541,233,329.9773192881621,172.89747933165654,218.74472350476935,416.5800547142553,1906.2211044520664,-185.71837781693375,4,2,1
1542,237,-377.2570557118379,-651.613629066781,30.922457879769354,-370.8047109107447,-1390.6382705479336,248.41931749556625,4,2,1
1543,231,-447.5968994618379,-410.59470816834346,-252.16152649523065,-314.7019277076197,-2784.2163955479336,218.13269640181625,4,2,1
1544,235,70.31716303816211,184.96754769103154,-129.36074524523065,228.5795664330053,-603.3101455479336,-85.58263562943375,4,2,1
1545,239,383.8210692881621,303.47633675353154,209.19980162976935,487.3234629173803,1964.9398544520664,-223.38121961380875,4,2,1
1546,243,-259.1047119618379,-565.6041075824062,86.86972350476935,-258.6884999732447,-691.4976455479336,188.02478624556625,4,2,1
1547,247,-512.8390869618379,-503.06394644959346,-219.64004212023065,-399.5490956763697,-2877.7476455479336,252.19666124556625,4,2,1
1548,251,-56.72971196183789,57.69655159728154,-135.53066712023065,106.04733987050531,-1163.4820205479336,-35.06774305130875,4,2,1
1549,255,396.4265380381621,370.86696175353154,157.56894225476935,505.2048105736303,1803.9711044520664,-257.42296766068375,4,2,1
1550,259,-122.71408696183789,-443.49644156678096,160.85409850476935,-97.97927145761969,-8.857020547933644,117.95252062056625,4,2,1
1551,263,-530.4758057118379,-576.5788390277185,-180.36758118273065,-430.5063710669947,-2838.4820205479336,289.30066515181625,4,2,1
1552,267,-130.9406494618379,-32.40330191834346,-186.93887024523065,25.17868752675531,-1630.4195205479336,32.94861437056625,4,2,1
1553,267,376.8913817881621,418.72194222228154,94.58066100476935,517.4089121361303,1470.4867294520664,-247.23058484818375,4,2,1
1554,271,18.481225538162107,-292.97996207459346,176.81308287976935,30.67722268300531,685.3461044520664,34.49109483931625,4,2,1
1555,275,-531.9289307118379,-636.414410316781,-129.69668274523065,-477.1321034888697,-2668.7788955479336,303.98572374556625,4,2,1
1556,279,-238.7843994618379,-142.26194449646846,-219.41640930773065,-73.39235739511969,-2039.9663955479336,85.51990343306625,4,2,1
1557,283,319.7390380381621,392.07887581603154,49.318942254769354,470.7831797142553,1002.3929794520664,-226.57750867630875,4,2,1
1558,287,155.3406005381621,-122.68186637146846,219.25839537976935,188.9723886986303,1266.1586044520664,-50.55748914505875,4,2,1
1559,291,-506.6476807118379,-665.046978676156,-74.13027649523065,-471.0747304419947,-2345.5601455479336,301.75086046431625,4,2,1
1560,295,-316.1008057118379,-238.32981559021846,-239.19765930773065,-177.3728261451197,-2375.8413955479336,131.22937608931625,4,2,1
1561,299,254.2937255381621,354.88551644103154,-8.751370245230646,397.3351816673803,450.11172945206636,-185.94201062943375,4,2,1
1562,303,275.6374755381621,55.55079964415654,225.60605162976935,328.2236094017553,1710.8148544520664,-127.40270398880875,4,2,1
1563,300,-447.3937744618379,-675.5746886370935,-26.229885870230646,-426.3935780982447,-1875.3882705479336,283.44470812056625,4,2,1
1564,304,-395.6515869618379,-333.83884879334346,-252.22890930773065,-250.4182363013697,-2639.6226455479336,180.35828233931625,4,2,1
1565,308,161.2429442881621,275.26857308165654,-61.232815557730646,295.5453867455053,-133.91952054793364,-133.68370984818375,4,2,1
1566,312,357.2663817881621,211.52125862853154,226.72519225476935,430.4828867455053,1936.8148544520664,-194.63683484818375,4,2,1
1567,316,-359.7765869618379,-640.415386879281,53.006442254769354,-357.7065663794947,-1294.7632705479336,244.41834093306625,4,2,1
1568,320,-459.3742432118379,-424.8550841449062,-231.30703430773065,-326.6152577857447,-2801.8726455479336,225.30750108931625,4,2,1
1569,324,53.03981928816211,165.90138558165654,-126.16445618273065,206.3395761986303,-686.3413955479336,-80.88878797318375,4,2,1
1570,328,409.2585692881621,330.05275276915654,175.27011412976935,485.5800547142553,1959.9242294520664,-234.37828992630875,4,2,1
1571,332,-227.5422119618379,-541.464215004281,102.27011412976935,-239.3764882544947,-608.9351455479336,177.49744249556625,4,2,1
1572,336,-526.5656494618379,-518.3971984027185,-207.05605774523065,-393.8047109107447,-2874.5288955479336,259.99744249556625,4,2,1
1573,335,-45.51096196183789,54.99220589415654,-136.58047180773065,109.75778908925531,-1221.4820205479336,-16.001825082558753,4,2,1
1574,339,408.2077880381621,391.43068245665654,153.43222350476935,512.6703867455053,1771.5179794520664,-246.04577039505875,4,2,1
1575,343,-103.64768071183789,-423.15635367615596,146.19198912976935,-95.52077536386969,97.36172945206636,109.19031358931625,4,2,1
1576,347,-542.2101807118379,-590.9509093402185,-192.30410462023065,-448.7007070044947,-2820.3101455479336,288.45154405806625,4,2,1
1577,351,-144.3742432118379,-55.47019644959346,-193.37637024523065,-0.9951405982446886,-1681.6695205479336,38.96130968306625,4,2,1
1578,355,366.6335692881621,409.93776253478154,91.80917662976935,500.9355234642553,1405.4242294520664,-251.58898328568375,4,2,1
1579,359,38.24294428816211,-262.51438590271846,192.48105162976935,60.85202737050531,785.1586044520664,16.073126089316247,4,2,1
1580,363,-531.2140869618379,-640.415386879281,-128.42226868273065,-472.8628163794947,-2627.9507705479336,308.03162218306625,4,2,1
1581,367,-241.8039307118379,-145.95017691834346,-205.73672180773065,-88.07766012949469,-2102.9038955479336,97.34412218306625,4,2,1
1582,371,326.6687255381621,407.41212776915654,45.406832879769354,457.8637461205053,929.6429794520664,-215.84874891068375,4,2,1
1583,368,177.8952880381621,-88.52854605896846,227.66269225476935,208.7536386986303,1353.5179794520664,-57.19591687943375,4,2,1
1584,372,-505.3312744618379,-675.5300109027185,-94.53750305773065,-473.4663320044947,-2294.5288955479336,298.66638780806625,4,2,1
1585,376,-327.6789307118379,-247.04710074646846,-246.08242493273065,-180.3454823951197,-2408.2320205479336,135.52087999556625,4,2,1
1586,380,230.5554442881621,335.21583870665654,-13.624417120230646,379.0292734642553,381.75235445206636,-178.65538953568375,4,2,1
1587,384,284.7351317881621,78.39430550353154,234.36777037976935,344.0263437767553,1750.2211044520664,-141.84191297318375,4,2,1
1588,388,-441.2687744618379,-673.250103676156,-8.036526495230646,-429.2546620826197,-1795.0288955479336,276.80603624556625,4,2,1
1589,392,-395.0265869618379,-339.87376090271846,-227.28457337023065,-259.5378652076197,-2671.3570205479336,188.87439562056625,4,2,1
1590,396,144.3913817881621,257.25294808165654,-65.88222962023065,289.9128183861303,-211.65389554793364,-121.99376844193375,4,2,1
1591,400,368.0866942881621,233.64967659728154,198.62753600476935,428.0688242455053,1950.0648544520664,-200.20250867630875,4,2,1
1592,404,-339.5929932118379,-621.617535316781,37.717379754769354,-367.6308827857447,-1201.7945205479336,229.97937608931625,4,2,1
1593,418,-486.6203369618379,-449.33030387146846,-235.33047180773065,-342.0603261451197,-2826.3257705479336,235.45545030806625,4,2,1
1594,422,48.87966303816211,164.64967659728154,-111.68105774523065,215.1237558861303,-772.1538955479336,-68.14830945755875,4,2,1
1595,426,417.4616942881621,345.96705940978154,191.36386412976935,511.8432383080053,1944.1742294520664,-232.25475477005875,4,2,1
1596,430,-214.1984619618379,-535.0044982074062,121.49277037976935,-216.5554433326197,-494.87264554793364,177.22888780806625,4,2,1
1597,434,-513.7804932118379,-520.565289223031,-209.00039368273065,-409.9426503638697,-2888.1695205479336,268.60291124556625,4,2,1
1598,438,-66.54221196183789,39.10011605040654,-167.00137024523065,97.75485940175531,-1308.3882705479336,-7.418573129433753,4,2,1
1599,442,400.9226317881621,392.19044808165654,133.40683287976935,521.9015879173803,1740.7211044520664,-249.93517469193375,4,2,1
1600,446,-74.74533696183789,-392.82505484803096,165.45761412976935,-78.75685934824469,222.48672945206636,93.49939562056625,4,2,1
1601,450,-533.8078369618379,-586.279400551156,-168.49941712023065,-456.5012441138697,-2799.8257705479336,294.15125108931625,4,2,1
1602,454,-153.5383057118379,-50.95505973084346,-192.37051087023065,-5.130150363869689,-1744.5445205479336,43.61023546431625,4,2,1
1603,446,385.0515380381621,430.90382698790654,93.75448912976935,506.7470469017553,1351.0179794520664,-248.34801648880875,4,2,1
1604,450,69.66872553816211,-235.91575309021846,200.08066100476935,79.38181252675531,867.5961044520664,8.562872183066247,4,2,1
1605,454,-532.3781494618379,-648.5737120745935,-133.13906555773065,-476.3720937232447,-2595.2632705479336,303.22595812056625,4,2,1
1606,458,-249.3351807118379,-160.99290152771846,-221.85293274523065,-118.76638083261969,-2130.4351455479336,97.88025499556625,4,2,1
1607,462,304.9656005381621,399.47731331603154,35.461520379769354,438.7753672142553,841.5961044520664,-214.77575086380875,4,2,1
1608,466,188.6257567881621,-65.48386832459346,218.27597350476935,240.2472910423803,1404.5961044520664,-71.32238172318375,4,2,1
1609,470,-496.5461182118379,-678.793316566781,-71.96230774523065,-456.0991445044947,-2240.3726455479336,302.24255968306625,4,2,1
1610,474,-341.4914307118379,-262.46970816834346,-229.05019837023065,-183.1172109107447,-2453.0288955479336,152.79871202681625,4,2,1
1611,478,230.2859130381621,334.34425667540654,-13.222073370230646,369.1945566673803,287.64297945206636,-165.08776258255875,4,2,1
1612,482,313.9499755381621,106.75880745665654,235.53183287976935,349.4802011986303,1788.9398544520664,-143.11608289505875,4,2,1
1613,497,-420.3937744618379,-663.839947426156,-11.255276495230646,-421.0515370826197,-1726.7320205479336,270.92761827681625,4,2,1
1614,501,-415.0304932118379,-356.9058653949062,-237.18594055773065,-286.8515859107447,-2716.2788955479336,197.14441515181625,4,2,1
1615,505,125.45778803816211,243.41725472228154,-76.18594055773065,273.5290293236303,-344.87264554793364,-117.12096570755875,4,2,1
1616,509,379.1062255381621,253.18507698790654,201.22128600476935,449.7948984642553,1920.8929794520664,-201.76696180130875,4,2,1
1617,513,-325.3078369618379,-608.4076964495935,49.094332879769354,-327.4424062232447,-1141.4820205479336,228.07947374556625,4,2,1
1618,517,-465.5890869618379,-448.48093863709346,-221.04824524523065,-355.9631581763697,-2880.4507705479336,240.90906358931625,4,2,1
1619,521,22.953881788162107,134.49733284728154,-136.37929993273065,167.4028086205053,-879.0757705479336,-61.44274305130875,4,2,1
1620,525,392.5632567881621,339.08278206603154,176.11972350476935,494.5876230736303,1878.7054794520664,-242.80480359818375,4,2,1
1621,529,-229.8000244618379,-535.272808754281,91.67441100476935,-214.6330800513697,-421.43514554793364,143.92517687056625,4,2,1
1622,533,-568.4758057118379,-566.2076232074062,-265.34902649523065,-416.8716054419947,-2893.6382705479336,241.53504015181625,4,2,1
1623,526,-171.3742432118379,-33.00681754334346,-292.75234680773065,39.43918557363031,-1403.2320205479336,-51.56334852005875,4,2,1
1624,530,263.0124755381621,312.21608284728154,-47.799221807730646,454.6227793236303,1609.0648544520664,-330.51305555130875,4,2,1
1625,534,-119.47189946183789,-435.29343863709346,89.68612975476935,-74.53249411386969,280.03360445206636,31.674688589316247,4,2,1
1626,538,-622.9015869618379,-672.1772276995935,-276.12246399523065,-511.0395741919947,-2810.2945205479336,284.60681749556625,4,2,1
1627,542,-423.1672119618379,-258.44651480896846,-478.31679993273065,-100.39333395761969,-1883.1226455479336,4.874883901816247,4,2,1
1628,546,174.8991942881621,241.58449105040654,-203.61367493273065,423.9562754173803,1243.3148544520664,-313.45861219193375,4,2,1
1629,550,175.0124755381621,-200.91306754334346,270.31112975476935,59.46628518300531,935.2054794520664,-30.396112191933753,4,2,1
1630,554,-559.0187744618379,-665.0246398089685,-143.55410462023065,-471.2534413794947,-2602.1695205479336,350.09754015181625,4,2,1
1631,558,-563.8937744618379,-384.73374625428096,-592.1986358702306,-138.4360585669947,-2230.3570205479336,52.30505968306625,4,2,1
1632,562,109.72341303816211,168.47194222228154,-327.28554993273065,385.5558847923803,761.2054794520664,-363.92907117630875,4,2,1
1633,575,348.5945067881621,17.86598519103154,365.93027037976935,268.4328379173803,1544.7054794520664,-91.55065320755875,4,2,1
1634,579,-401.1711182118379,-598.729351723031,28.219332879769354,-419.4421620826197,-2178.8413955479336,416.37048937056625,4,2,1
1635,583,-291.4484619618379,-233.05491324646846,-262.35390930773065,-192.0801015357447,-2528.5288955479336,208.61121202681625,4,2,1
1636,587,258.2702880381621,358.43947151915654,9.242770379769354,337.2538828392553,188.06485445206636,-184.80211805130875,4,2,1
1637,591,274.1179442881621,109.03859261290654,197.93612975476935,383.9911875267553,1859.1586044520664,-145.84288953568375,4,2,1
1638,595,-491.0461182118379,-732.415142738656,-93.73281555773065,-394.4304433326197,-1619.4663955479336,194.70837999556625,4,2,1
1639,599,-539.9758057118379,-483.97544547303096,-394.49746399523065,-302.2744374732447,-2742.6382705479336,135.58777452681625,4,2,1
1640,603,8.578881788162107,95.56056526915654,-299.86074524523065,223.5058359642553,-375.59139554793364,98.39441515181625,4,2,1
1641,607,422.3132567881621,234.94606331603154,175.42636412976935,448.0961679955053,2014.2679794520664,94.81824327681625,4,2,1
1642,611,-432.2843994618379,-694.081890785531,-52.225003057730646,-320.7593007544947,-972.9820205479336,152.35144640181625,4,2,1
1643,640,-701.8468994618379,-652.597027504281,-505.45156555773065,-428.6958241919947,-2911.2320205479336,45.24207140181625,4,2,1
1644,644,136.7898192881621,167.77907112853154,17.131442254769354,176.8576426048803,-940.5288955479336,-183.19274305130875,4,2,1
1645,648,527.7234130381621,410.54127815978154,315.01425475476935,475.9911875267553,1957.1742294520664,-341.01842664505875,4,2,1
1646,652,-116.09689946183789,-507.53428336365596,121.40292662976935,-237.4765859107447,-263.96639554793364,111.51502062056625,4,2,1
