,time,ch1,ch2,ch3,ch4,ch5,ch6,tag,ID,Repeticion
37061,0,-462.66877183134056,-542.6510053623224,-349.6054784961325,-530.746086927707,-2355.185503992019,286.16857690868255,3,2,19
37062,3,-114.00080308134056,16.053340340802606,-400.6123144336325,52.76856150979302,-1273.8261289920192,-36.14367895069245,3,2,19
37063,7,309.56169691865944,415.1661333095526,-232.3037206836325,599.469733384793,1548.8144960079808,-350.18567113819245,3,2,19
37064,11,-14.805490581340564,-368.2625776279474,-108.43067380863249,-100.02806934958198,761.4707460079808,18.998166752432553,3,2,19
37065,15,-463.24689683134056,-607.8284955966974,-317.5537206836325,-533.137688490207,-2208.060503992019,310.48718042430755,3,2,19
37066,19,-190.87189683134056,-78.4276166904474,-398.3769628711325,4.980475572293017,-1652.2480039920192,25.189573002432553,3,2,19
37067,23,276.59294691865944,423.6373247158026,-270.8154394336325,565.003424791043,1144.8769960079808,-343.99426488819245,3,2,19
37068,27,117.22575941865944,-180.2174116123224,-95.06446287113249,90.74414744729302,1299.2676210079808,-97.61096410694245,3,2,19
37069,31,-433.05158433134056,-656.4437299716974,-281.2539159961325,-600.774163099582,-1938.6542539920192,311.80602808055755,3,2,19
37070,36,-271.53595933134056,-179.7703901279474,-424.3281347461325,-131.45458302145698,-1987.3417539920192,108.74035425243255,3,2,19
37071,35,201.17888441865944,376.9893754970526,-300.4316503711325,505.726569322293,646.9707460079808,-286.81848363819245,3,2,19
37072,39,211.61638441865944,-11.729862784197394,-113.12403318363249,253.04004588479302,1689.4707460079808,-198.99841527881745,3,2,19
37073,43,-386.73908433134056,-680.7623334873224,-222.1787206836325,-561.256340833957,-1533.3261289920192,306.12853784618255,3,2,19
37074,47,-341.56720933134056,-286.2318159091974,-412.5263769336325,-229.26586231833198,-2177.482378992019,159.05407495555755,3,2,19
37075,51,127.26091566865944,304.8377641689276,-336.9550878711325,415.291510728543,120.23637100798078,-238.15881566944245,3,2,19
37076,55,276.39372816865944,137.8480180751776,-135.0068456836325,420.879401353543,1915.6738710079808,-278.34704809131745,3,2,19
37077,59,-318.63361558134056,-662.7469526279474,-209.4384863086325,-512.395256849582,-1009.6073789920192,245.39880151805755,3,2,19
37078,63,-407.16877183134056,-384.0206342685724,-415.2529394336325,-350.032219740207,-2322.576128992019,205.70226831493255,3,2,19
37079,67,41.854665668659436,205.8196977626776,-362.8828222461325,287.774665025418,-399.3573789920192,-169.91882543506745,3,2,19
37080,71,322.34685316865944,280.3179887783026,-159.6611425586325,529.062018541043,1944.0488710079808,-331.03015356006745,3,2,19
37081,66,-210.60627183134056,-592.9200483310724,-142.7177831836325,-440.377922865207,-431.7948789920192,192.40295190868255,3,2,19
37082,70,-422.83674058134056,-455.1661420810724,-371.4882909961325,-416.394524427707,-2387.701128992019,263.99548120555755,3,2,19
37083,74,-45.875803081340564,118.8265337001776,-383.8037206836325,211.28711619729302,-879.3886289920192,-99.17566137256745,3,2,19
37084,78,333.25700941865944,365.5675004970526,-197.8379003711325,575.620612291043,1817.5801210079808,-373.09631566944245,3,2,19
37085,82,-99.02814683134056,-490.6160932529474,-117.70606443363249,-231.21044239645698,199.00199600798078,98.12316675243255,3,2,19
37086,86,-459.98517808134056,-545.6908002841974,-343.2802831836325,-508.059075208957,-2364.185503992019,301.85949487743255,3,2,19
37087,90,-125.28986558134056,11.828730965802606,-378.7744238086325,92.19702830666802,-1319.7636289920192,-32.09802465381745,3,2,19
37088,94,309.36247816865944,415.3673051845526,-231.0078222461325,611.360846666043,1531.3144960079808,-381.96985082569245,3,2,19
37089,98,9.065603168659436,-346.0450483310724,-107.31250974613249,-69.78612599020698,817.6269960079808,-16.004762935067447,3,2,19
37090,102,-455.40314683134056,-610.7789350498224,-313.1054784961325,-577.461174818332,-2197.044878992019,335.47643823680755,3,2,19
37091,102,-191.20392808134056,-84.9095502841974,-410.6484472461325,-43.05345997458198,-1677.9198789920192,52.88342065868255,3,2,19
37092,106,272.52654066865944,421.4022172939276,-280.4267675586325,555.325202134793,1111.0644960079808,-339.07678441944245,3,2,19
37093,110,124.24529066865944,-169.6673627841974,-104.04981443363249,103.05982127541802,1317.3144960079808,-111.49133520069245,3,2,19
37094,114,-440.94220933134056,-660.8917280185724,-272.0009863086325,-573.773186537082,-1902.9667539920192,310.71081323680755,3,2,19
37095,118,-272.18439683134056,-188.4205366123224,-402.7802831836325,-148.77709278708198,-1972.2480039920192,107.62267847118255,3,2,19
37096,122,203.68279066865944,376.1622270595526,-301.0800878711325,504.720709947293,600.4863710079808,-287.01965551319245,3,2,19
37097,126,212.78044691865944,-6.812626456072394,-123.11524412113249,262.897223619168,1713.9707460079808,-198.26086645069245,3,2,19
37098,130,-373.19220933134056,-672.5816694248224,-232.3261816211325,-574.421379896457,-1485.7011289920192,291.82360620555755,3,2,19
37099,134,-324.57892808134056,-279.4144330966974,-416.8623144336325,-254.12084278708198,-2190.466753992019,155.34362573680755,3,2,19
37100,138,120.66716566865944,300.1216997158026,-331.8359472461325,392.895026353543,71.54887100798078,-243.85852270069245,3,2,19
37101,173,288.26091566865944,164.1336626064276,-136.2812597461325,428.993170884793,1925.6738710079808,-279.24133520069245,3,2,19
37102,177,-308.88752183134056,-651.2357221591974,-177.8769628711325,-491.340081068332,-971.9667539920192,251.45617456493255,3,2,19
37103,181,-392.03595933134056,-388.4686323154474,-403.1601659961325,-363.197502943332,-2366.029253992019,227.98693628368255,3,2,19
37104,185,34.815603168659436,199.1363481533026,-347.5498144336325,290.345221666043,-447.9355039920192,-160.15124731006745,3,2,19
37105,189,320.87419691865944,281.9942583095526,-159.3252050586325,559.303717759793,1958.3926210079808,-350.11853246631745,3,2,19
37106,193,-213.53595933134056,-598.1949506748224,-147.6357519336325,-413.198235365207,-376.0448789920192,156.79650659618255,3,2,19
37107,197,-432.73908433134056,-468.7559858310724,-372.1806738086325,-416.282952162082,-2394.560503992019,256.70886011180755,3,2,19
37108,201,-41.696115581340564,110.2210649501776,-382.9326269336325,204.02271190041802,-912.8261289920192,-87.48571996631745,3,2,19
37109,205,348.52263441865944,378.8890337001776,-197.5019628711325,581.945807603543,1812.3926210079808,-369.36340551319245,3,2,19
37110,209,-92.92658433134056,-477.3839155185724,-115.82911130863249,-232.28319630270698,240.64262100798078,78.99011011180755,3,2,19
37111,204,-460.56720933134056,-559.4593549716974,-350.1201269336325,-511.188469740207,-2341.482378992019,291.48815698680755,3,2,19
37112,208,-134.20783433134056,-2.990360831072394,-410.9170019336325,64.81616893166802,-1340.8573789920192,-23.179567622567447,3,2,19
37113,212,321.31950941865944,426.1182817470526,-235.3212988086325,580.403815416043,1489.6582460079808,-354.54431371631745,3,2,19
37114,216,21.514821918659436,-332.7232709873224,-99.10938474613249,-50.67528614645698,844.0488710079808,-15.311891841317447,3,2,19
37115,220,-449.63752183134056,-618.6243940341974,-315.1621191211325,-570.733391615207,-2176.498003992019,324.45715112743255,3,2,19
37116,224,-197.53205308134056,-95.7054487216974,-426.3613378711325,-40.46068653708198,-1717.9980039920192,56.10192651805755,3,2,19
37117,228,277.78044691865944,418.4739946376776,-276.5380956836325,558.208502916043,1062.0644960079808,-339.59094457569245,3,2,19
37118,232,127.75310316865944,-164.8841596591974,-92.04688474613249,118.59448924416802,1367.7207460079808,-129.05993871631745,3,2,19
37119,236,-430.68049058134056,-655.2142377841974,-256.5556738086325,-597.242668958957,-1875.9980039920192,319.76305933055755,3,2,19
37120,240,-283.85236558134056,-207.2852827060724,-413.9785253711325,-163.81981739645698,-2013.7636289920192,113.54601831493255,3,2,19
37121,251,190.45232191865944,362.7288774501776,-300.8564550586325,482.972663072293,562.7676210079808,-283.28698949756745,3,2,19
37122,255,228.04607191865944,10.711299325177606,-107.93848630863249,279.750495103543,1729.3769960079808,-213.25891332569245,3,2,19
37123,259,-379.62970933134056,-687.8924604404474,-209.5048925586325,-559.356438490207,-1462.4042539920192,273.11511011180755,3,2,19
37124,263,-341.47736558134056,-300.7825971591974,-393.6836034961325,-254.34447559958198,-2214.904253992019,154.87438745555755,3,2,19
37125,267,120.53435316865944,300.6580766689276,-326.9189550586325,367.257331041043,5.501996007980779,-210.97888402881745,3,2,19
37126,271,281.69060316865944,168.6710161220526,-147.4785253711325,388.804694322293,1919.2519960079808,-282.41516332569245,3,2,19
37127,275,-294.37970933134056,-649.6934858310724,-167.2382909961325,-459.712395521457,-928.9823789920192,245.04137964305755,3,2,19
37128,279,-385.88752183134056,-383.7076459873224,-380.9433691211325,-311.900139662082,-2350.373003992019,227.45055933055755,3,2,19
37129,283,37.296071918659436,209.3958696376776,-353.8974706836325,322.106940416043,-479.5292539920192,-150.31628637256745,3,2,19
37130,287,320.76091566865944,288.7445024501776,-176.1787206836325,552.262702134793,1955.3301210079808,-346.47522191944245,3,2,19
37131,282,-208.86408433134056,-593.0318647373224,-151.8818456836325,-371.087639662082,-320.3417539920192,166.74303979930755,3,2,19
37132,286,-434.19220933134056,-481.8094526279474,-382.2617284961325,-464.964836927707,-2392.748003992019,277.47375268993255,3,2,19
37133,290,-40.735178081340564,104.0074419033026,-376.0254003711325,162.47095408791802,-964.4355039920192,-77.24841527881745,3,2,19
37134,294,342.88982191865944,387.1817583095526,-196.0937597461325,606.533209947293,1788.1582460079808,-371.86682348194245,3,2,19
37135,298,-83.64924058134056,-463.5928998935724,-107.53614255863249,-195.78295216208198,312.5488710079808,56.16906518993255,3,2,19
37136,302,-446.43830308134056,-548.4847455966974,-336.7314550586325,-531.483635755832,-2343.669878992019,303.82629175243255,3,2,19
37137,306,-118.07111558134056,2.083369637677606,-397.3711034961325,56.23291697854302,-1393.7011289920192,-3.398317622567447,3,2,19
37138,310,296.08513441865944,414.1378129970526,-240.0371191211325,595.111334947293,1454.6113710079808,-357.22644262256745,3,2,19
37139,314,21.671071918659436,-326.6436811435724,-108.92188474613249,-48.82006153708198,895.5176210079808,-34.51208715381745,3,2,19
37140,318,-462.17658433134056,-640.3951459873224,-309.4843847461325,-599.410637708957,-2166.060503992019,302.26183862743255,3,2,19
37141,310,-216.93439683134056,-124.2486616123224,-410.9394628711325,-64.13109669333198,-1734.1542539920192,61.91344995555755,3,2,19
37142,314,264.70232191865944,413.4674028408026,-279.0185644336325,550.362799791043,1041.3144960079808,-333.17590551319245,3,2,19
37143,318,126.90544691865944,-165.9793745029474,-119.40528318363249,123.66821971291802,1389.3613710079808,-139.14050512256745,3,2,19
37144,322,-435.12970933134056,-671.2628217685724,-261.5400488086325,-554.371819349582,-1871.5136289920192,317.17028589305755,3,2,19
37145,326,-277.19220933134056,-200.2222944248224,-391.2695409961325,-115.27196583395698,-2029.0292539920192,124.31945581493255,3,2,19
37146,330,197.13200941865944,369.7025102626776,-292.4296972461325,486.258307603543,515.5176210079808,-273.29577856006745,3,2,19
37147,334,242.75310316865944,37.712031747052606,-102.06055662113249,271.435553697293,1743.0801210079808,-196.24914770069245,3,2,19
37148,338,-369.88361558134056,-676.0460248935724,-207.0468847461325,-546.749993177707,-1414.2792539920192,297.83605737743255,3,2,19
37149,342,-345.54377183134056,-301.4979291904474,-413.4648534961325,-246.61083302145698,-2223.826128992019,176.48840112743255,3,2,19
37150,346,127.86638441865944,297.5736040126776,-342.5205175586325,389.430670884793,-11.060503992019221,-210.88952856006745,3,2,19
37151,353,287.85857191865944,166.6146196376776,-142.5390722461325,449.020026353543,1960.3613710079808,-299.33532934131745,3,2,19
37152,357,-288.41486558134056,-652.5321088779474,-173.4736425586325,-493.195305677707,-869.5761289920192,237.03942651805755,3,2,19
37153,361,-414.07502183134056,-405.6124311435724,-402.5127050586325,-363.197502943332,-2372.373003992019,232.34557886180755,3,2,19
37154,365,30.077321918659436,191.7603715908026,-366.2353613086325,287.126471666043,-538.7167539920192,-145.04138402881745,3,2,19
37155,369,316.94060316865944,290.8902544033026,-165.9638769336325,537.756842759793,1928.1738710079808,-347.48108129444245,3,2,19
37156,373,-189.12580308134056,-572.8480268466974,-137.4873144336325,-333.514397474582,-287.4042539920192,153.19787378368255,3,2,19
37157,377,-455.84845933134056,-507.7598920810724,-394.5332128711325,-449.341057630832,-2404.326128992019,257.35705347118255,3,2,19
37158,381,-63.910959331340564,84.5389360439276,-376.3828222461325,155.22901072854302,-1004.9355039920192,-80.80237035694245,3,2,19
37159,385,331.87029066865944,386.1312212001776,-188.7177831836325,616.188971666043,1759.4863710079808,-361.16028051319245,3,2,19
37160,389,-78.01642808134056,-455.2332807529474,-115.06934568363249,-193.54784474020698,348.8613710079808,68.26135034618255,3,2,19
37161,384,-459.09064683134056,-565.8072553623224,-341.4023534961325,-529.181633802707,-2344.607378992019,314.28698511180755,3,2,19
37162,388,-141.20392808134056,-13.495731924822394,-396.2314550586325,62.44678416604302,-1420.9980039920192,-5.633425044442447,3,2,19
37163,392,304.40154066865944,419.5245317470526,-237.8466894336325,594.351081041043,1438.1269960079808,-369.56457738819245,3,2,19
37164,396,39.018728168659436,-307.1976362216974,-103.42383787113249,-33.17406544333198,945.1582460079808,-42.71496801319245,3,2,19
37165,400,-462.06330308134056,-636.7740522373224,-320.1914159961325,-581.976311537082,-2145.294878992019,329.84386987743255,3,2,19
37166,404,-229.49299058134056,-130.1048627841974,-431.9941503711325,-51.59179005270698,-1767.7948789920192,56.72790308055755,3,2,19
37167,408,253.14763441865944,402.8055376064276,-277.5214941211325,555.883795884793,994.1582460079808,-330.40442113819245,3,2,19
37168,412,159.62810316865944,-121.2535444248224,-83.84375974613249,151.33960643166802,1441.5332460079808,-130.73620824756745,3,2,19
37169,416,-419.41877183134056,-668.8936811435724,-251.5937597461325,-591.028801771457,-1816.8573789920192,309.79430933055755,3,2,19
37170,420,-284.54767808134056,-209.9898725498224,-423.1875097461325,-178.41552052145698,-2053.216753992019,113.27770776805755,3,2,19
37171,431,189.33122816865944,366.2156938564276,-316.7041113086325,486.705084947293,490.8613710079808,-280.11291723194245,3,2,19
37172,435,235.24529066865944,27.698604012677606,-112.43165037113249,313.479254869168,1805.5801210079808,-229.68738012256745,3,2,19
37173,439,-361.41486558134056,-680.6058393466974,-218.5351659961325,-605.847893568332,-1369.7323789920192,285.36388940868255,3,2,19
37174,443,-352.31720933134056,-306.9517866123224,-418.6953222461325,-270.147209974582,-2267.451128992019,171.81701440868255,3,2,19
37175,447,116.19841566865944,288.2081254970526,-337.9609472461325,413.860846666043,-48.26362899201922,-211.47082738819245,3,2,19
37176,451,288.44060316865944,191.0897172939276,-147.7470800586325,464.755866197293,1958.6582460079808,-302.62121801319245,3,2,19
37177,455,-285.46174058134056,-645.4241987216974,-164.5332128711325,-462.662834974582,-845.9980039920192,229.88683862743255,3,2,19
37178,459,-406.54377183134056,-406.6182905185724,-396.1425878711325,-360.984612318332,-2380.044878992019,234.89367456493255,3,2,19
37179,463,15.303884418659436,179.9810747158026,-367.1962988086325,270.675543931668,-555.3730039920192,-142.02380590381745,3,2,19
37180,467,323.15154066865944,305.9107622158026,-185.7002050586325,545.177252916043,1919.9238710079808,-341.33435277881745,3,2,19
37181,462,-182.08674058134056,-562.3428998935724,-131.9443456836325,-344.645500990207,-244.01362899201922,153.26501245555755,3,2,19
37182,466,-442.43830308134056,-491.4207807529474,-356.7138769336325,-455.957268568332,-2412.873003992019,269.47179956493255,3,2,19
37183,470,-71.95783433134056,74.2349809658026,-376.7636816211325,156.92774119729302,-1044.7011289920192,-70.63244848194245,3,2,19
37184,474,320.89372816865944,378.1292680751776,-211.6953222461325,581.096686509793,1712.4707460079808,-365.31775121631745,3,2,19
37185,478,-76.52033433134056,-449.6007123935724,-122.66895505863249,-193.68187794333198,348.6894960079808,57.91247339305755,3,2,19
37186,482,-468.77033433134056,-576.1561323154474,-355.2607519336325,-544.939446302707,-2374.419878992019,303.66979761180755,3,2,19
37187,486,-152.96174058134056,-25.006962393572394,-402.1328222461325,36.78711619729302,-1481.5448789920192,-3.778444575692447,3,2,19
37188,490,295.77263441865944,414.8306840908026,-248.7773534961325,590.148932603543,1398.3926210079808,-366.52478246631745,3,2,19
37189,494,41.096853168659436,-291.5960737216974,-111.67188474613249,-10.106926771456983,975.8144960079808,-51.16394262256745,3,2,19
37190,498,-482.82892808134056,-652.9119916904474,-332.5068456836325,-587.228997083957,-2128.560503992019,304.36291284618255,3,2,19
37191,492,-256.36017808134056,-144.2535444248224,-447.5957128711325,-70.41185841208198,-1804.0761289920192,42.69103784618255,3,2,19
37192,496,251.29216566865944,406.6275590908026,-287.7138769336325,550.072272447293,941.2519960079808,-338.33923559131745,3,2,19
37193,500,140.44841566865944,-130.2835737216974,-130.5361425586325,168.95288768166802,1459.5176210079808,-156.66418676319245,3,2,19
37194,504,-466.71174058134056,-694.6873823154474,-292.5869238086325,-590.179436537082,-1808.3730039920192,290.72814722118255,3,2,19
37195,508,-399.21174058134056,-291.3726850498224,-540.3554784961325,-193.68187794333198,-2078.529253992019,66.74133081493255,3,2,19
37196,512,65.30388441865944,270.0137895595526,-477.5244238086325,429.104987291043,426.5801210079808,-337.17688207569245,3,2,19
37197,516,194.78825941865944,9.750117684552606,-209.9970800586325,306.281989244168,1791.6738710079808,-280.06823949756745,3,2,19
37198,520,-340.71564683134056,-673.0286909091974,-235.9921972461325,-548.761711927707,-1351.3261289920192,228.32214136180755,3,2,19
37199,524,-333.16095933134056,-310.0140424716974,-424.9531347461325,-261.899407240207,-2256.201128992019,174.94616479930755,3,2,19
37200,528,57.053884418659436,248.7125200283026,-411.1621191211325,361.557624009793,-91.74800399201922,-132.27844457569245,3,2,19
37201,524,248.03044691865944,168.4027055751776,-214.1318456836325,432.971686509793,1962.4082460079808,-222.89245824756745,3,2,19
37202,528,-298.33674058134056,-646.0277143466974,-182.4814550586325,-481.527581068332,-788.0292539920192,202.55065698680755,3,2,19
37203,532,-466.02033433134056,-443.8785444248224,-469.1875097461325,-403.877678724582,-2418.779253992019,200.58361597118255,3,2,19
37204,536,-7.696115581340564,136.0821489345526,-485.3037206836325,243.69702830666802,-604.8573789920192,-90.19006566944245,3,2,19
37205,540,406.54607191865944,339.4383501064276,-210.2431738086325,531.855963853543,1968.4238710079808,-255.86120824756745,3,2,19
37206,544,-102.20002183134056,-534.8055463779474,-230.4043066211325,-336.040032240207,-175.66987899201922,236.92761011180755,3,2,19
37207,548,-421.87580308134056,-487.7327924716974,-416.8398534961325,-453.274895521457,-2422.216753992019,312.43176050243255,3,2,19
37208,552,-154.23517808134056,40.439082528302606,-371.7783300586325,168.75171580666802,-1068.4823789920192,-132.14441137256745,3,2,19
37209,556,297.71794691865944,358.3702348720526,-210.2871191211325,601.347174791043,1729.6894960079808,-455.19421606006745,3,2,19
37210,560,-16.637521831340564,-413.5247846591974,-54.27247068363249,-160.31078419333198,467.5019960079808,35.82897729930755,3,2,19
37211,564,-426.36799058134056,-557.1795698154474,-262.0761816211325,-511.948235365207,-2290.279253992019,280.73693628368255,3,2,19
37212,568,-204.23517808134056,-64.9046674716974,-440.0185644336325,61.44092479104302,-1465.0917539920192,-77.53918676319245,3,2,19
