,time,ch1,ch2,ch3,ch4,ch5,ch6,tag,ID,Repeticion
19479,0,-836.0792711452086,-775.3523797132298,-684.3535857971565,-392.3746471899949,-2412.348646457074,165.98320448945879,1,2,9
19480,3,-360.3878648952086,-184.30526057260477,-651.0713592346565,234.1224231225051,-745.7705214570742,-133.19501816679121,1,2,9
19481,7,16.284010104791378,21.509680833645234,-380.2354217346565,576.3275012475051,1751.7607285429258,-302.9564927761662,1,2,9
19482,11,-535.6495836452086,-830.6282586194798,-312.5772186096565,-259.6947155493699,-171.9892714570742,111.28838027070879,1,2,9
19483,15,-882.6573961452086,-861.0042351819798,-617.3653045471565,-467.5211315649949,-2421.223646457074,212.27373183320879,1,2,9
19484,19,-453.0792711452086,-296.93563166635477,-651.7422576721565,115.4571399193801,-1185.7861464570742,-70.38666855741621,1,2,9
19485,24,17.780103854791378,85.74845036489523,-411.9082732971565,562.3802356225051,1513.5576035429258,-310.5336412136662,1,2,9
19486,27,-397.7589586452086,-692.8521355726048,-269.8623748596565,-87.4298229712449,430.6513535429258,26.619923239458785,1,2,9
19487,31,-891.2863023952086,-928.8418816663548,-587.3692107971565,-489.6270885962449,-2307.770521457074,225.08134902070879,1,2,9
19488,35,-556.7941148952086,-403.08406916635477,-675.7705779846565,9.710802028755097,-1564.1923964570742,-11.467479104291215,1,2,9
19489,29,-17.579271145208622,102.02066716177023,-450.7774139221565,568.0125598412551,1164.8701035429258,-316.8815416042912,1,2,9
19490,33,-266.6652086452086,-534.2217644788548,-258.2393279846565,78.9788684350051,989.9169785429258,-59.277781838666215,1,2,9
19491,37,-876.1534898952086,-972.4278191663548,-520.5596404846565,-552.3014050024949,-2113.083021457074,254.07109511445879,1,2,9
19492,41,-644.3683336452086,-504.78450861947977,-687.6172576721565,-105.0653210181199,-1897.2861464570742,45.864796286333785,1,2,9
19493,45,-90.75895864520862,64.02262028677023,-509.5176482971565,526.3714465600051,690.1982285429258,-280.2248033230412,1,2,9
19494,49,-142.32536489520862,-351.20565119760477,-262.1963592346565,259.3128528100051,1423.1357285429258,-142.24750840116621,1,2,9
19495,53,-818.0402086452086,-982.5530633069798,-465.3281951721565,-546.5792370337449,-1754.1142714570742,250.04814589570879,1,2,9
19496,57,-716.6066148952086,-589.1177605726048,-678.0947967346565,-199.5460339087449,-2151.739271457074,95.37382948945879,1,2,9
19497,61,-180.41130239520862,4.924719896145234,-536.8545623596565,440.8314074975051,197.7919785429258,-233.80024277616621,1,2,9
19498,65,-54.70427114520862,-189.46834651010477,-273.2158904846565,416.6690539818801,1701.4169785429258,-222.44550644804121,1,2,9
19499,61,-748.3683336452086,-971.8689812757298,-401.3799529846565,-478.8087292212449,-1282.1455214570742,215.22392714570879,1,2,9
19500,65,-786.5480211452086,-689.7898797132298,-687.2813201721565,-308.9578991431199,-2318.192396457074,136.88115370820879,1,2,9
19501,69,-251.48942739520862,-78.62606135385477,-588.5987029846565,326.6138782006301,-313.7548964570742,-178.12202011991621,1,2,9
19502,73,-5.083177395208622,-58.129723463229766,-305.8936248596565,498.4988879662551,1797.6357285429258,-266.0089830105412,1,2,9
19503,77,-651.2941148952086,-921.8680047132298,-329.9893279846565,-401.9635143774949,-731.1455214570742,175.43779433320879,1,2,9
19504,81,-832.2316148952086,-774.2571648694798,-639.6719451721565,-354.3319225806199,-2418.614271457074,175.39336073945879,1,2,9
19505,85,-364.5011461452086,-188.64144221322977,-616.2920623596565,243.6443957787551,-796.8798964570742,-137.75483261991621,1,2,9
19506,89,32.78010385479138,46.297766771145234,-356.2520232971565,584.5081653100051,1730.2451035429258,-315.6298326199162,1,2,9
19507,93,-516.1808336452086,-810.6458367444798,-313.0020232971565,-247.0658092993699,-118.87989645707421,102.07939589570879,1,2,9
19508,97,-871.5480211452086,-850.6331414319798,-620.9414764221565,-467.8563366431199,-2436.692396457074,224.20927870820879,1,2,9
19509,111,-467.0519273952086,-292.71126643197977,-620.7178436096565,114.7193469506301,-1237.9892714570742,-61.088328713666215,1,2,9
19510,115,18.830885104791378,101.79703434927023,-381.6660857971565,601.8309192162551,1486.3544785429258,-314.2440904324162,1,2,9
19511,119,-383.4542711452086,-668.4886101819798,-241.69928892215648,-65.1226940649949,482.0107285429258,21.434376364458785,1,2,9
19512,123,-878.1417711452086,-914.7378777601048,-547.5156951721565,-534.2857800024949,-2308.848646457074,240.07890761445879,1,2,9
19513,127,-562.7823961452086,-402.54769221322977,-651.4961639221565,-19.592176486869903,-1619.0517714570742,1.5190931613337852,1,2,9
19514,131,-21.579271145208622,112.32486638052023,-436.6289764221565,581.2449817162551,1102.1044785429258,-307.7174791042912,1,2,9
19515,135,-247.73552114520862,-500.26937190072977,-233.36237485965648,103.3646106225051,1008.9013535429258,-71.70527207304121,1,2,9
19516,139,-860.8448961452086,-957.9886101819798,-494.5196014221565,-561.0409069556199,-2083.520521457074,247.11992323945879,1,2,9
19517,143,-644.9034898952086,-504.80696955697977,-674.4287811096565,-122.3431530493699,-1923.5361464570742,48.189503317583785,1,2,9
19518,147,-92.32145864520862,75.10904606802023,-496.3301482971565,544.4315051537551,660.6044785429258,-272.9828599636662,1,2,9
19519,148,-127.50505239520862,-326.99886408822977,-241.99030454715648,294.7628039818801,1441.2138535429258,-151.72455918241621,1,2,9
19520,152,-806.9738023952086,-974.5957879163548,-427.8897186096565,-530.5531139868699,-1724.5048964570742,253.44560683320879,1,2,9
19521,156,-716.9425523952086,-593.8338250257298,-658.8057342346565,-209.4256725806199,-2180.301771457074,102.61601698945879,1,2,9
19522,160,-168.27458364520862,14.580725755520234,-532.8760467346565,395.3455676537551,131.9638535429258,-223.13837754179121,1,2,9
19523,164,-38.20817739520862,-157.30428401010477,-257.0108123596565,401.2464465600051,1706.9013535429258,-210.39789902616621,1,2,9
19524,168,-733.8839586452086,-959.5530633069798,-390.4951873596565,-439.4027233618699,-1249.3955214570742,210.35136855195879,1,2,9
19525,172,-792.7394273952086,-693.3213738538548,-663.5440154846565,-298.1395397681199,-2343.379896457074,134.53398573945879,1,2,9
19526,176,-263.8722398952086,-85.68929377572977,-557.5293670471565,331.7996692162551,-371.5048964570742,-174.47870957304121,1,2,9
19527,180,25.471510104791378,-26.926598463229766,-279.4512420471565,531.3333606225051,1801.2451035429258,-267.1041978542912,1,2,9
19528,184,-613.9464586452086,-890.5979851819798,-299.0313201721565,-372.9061413306199,-677.5205214570742,169.91679823945879,1,2,9
19529,172,-825.7081773952086,-762.5225457288548,-629.2559295471565,-429.0760632056199,-2438.504896457074,192.60380995820879,1,2,9
19530,176,-375.8995836452086,-197.71614924447977,-604.0879607971565,217.9844836693801,-852.8955214570742,-121.99677597929121,1,2,9
19531,180,39.10432260479138,63.799231614895234,-338.7061248596565,575.0760364037551,1704.1513535429258,-313.9535630886662,1,2,9
19532,184,-494.1613023952086,-781.9014519788548,-267.7168670471565,-226.7706432837449,-66.11427145707421,106.41582167695879,1,2,9
19533,188,-860.5988023952086,-842.4969109632298,-581.2227264221565,-446.7118053931199,-2417.833021457074,234.28984511445879,1,2,9
19534,192,-475.1183336452086,-301.89778986947977,-606.7930389221565,109.4891223412551,-1277.5517714570742,-39.965770119916215,1,2,9
19535,196,31.596510104791378,118.49381169302023,-354.9112029846565,597.6063098412551,1450.3701035429258,-302.9789537136662,1,2,9
19536,200,-350.9777086452086,-625.4168328382298,-226.43366392215648,-33.8748913306199,521.5732285429258,21.724903708208785,1,2,9
19537,204,-875.6613023952086,-904.6348504163548,-550.5108123596565,-523.4452038306199,-2303.786146457074,251.94804823945879,1,2,9
19538,208,-576.4855211452086,-406.03450861947977,-637.9512420471565,-15.703016330619903,-1659.1298964570742,6.570362692583785,1,2,9
19539,220,-14.805833645208622,112.97305973989523,-420.7373748596565,576.7073840600051,1060.7763535429258,-306.7785142605412,1,2,9
19540,224,-221.67302114520862,-483.19271174447977,-228.89167173465648,112.6629504662551,1066.6982285429258,-88.15619980741621,1,2,9
19541,228,-837.0167711452086,-943.3479851819798,-461.1709686096565,-542.3548717993699,-2065.520521457074,247.92461073945879,1,2,9
19542,232,-640.2081773952086,-486.43367854135477,-623.9590545471565,-96.9293346899949,-1957.5830214570742,64.08159316133379,1,2,9
19543,236,-94.64958364520862,75.35489567739523,-474.5821014221565,501.5164660912551,606.2294785429258,-261.0470689480412,1,2,9
19544,240,-125.51677114520862,-317.96859065072977,-215.63776548465648,269.1253528100051,1483.5576035429258,-155.18915879179121,1,2,9
19545,244,-799.4894273952086,-963.0848015882298,-389.4219451721565,-518.3267956274949,-1703.5830214570742,262.8777357394588,1,2,9
19546,248,-721.5245836452086,-588.6036004163548,-621.0313201721565,-199.0990124243699,-2208.973646457074,128.23125136445879,1,2,9
19547,252,-181.52848989520862,5.081214036770234,-507.5059295471565,424.1568469506301,82.37010354292579,-210.84492051054121,1,2,9
19548,256,-27.548021145208622,-144.18392268197977,-259.8487029846565,436.9644641381301,1734.4794785429258,-236.12470566679121,1,2,9
19549,247,-719.5363023952086,-943.0127801038548,-349.6807342346565,-464.5260143774949,-1210.0361464570742,211.80400527070879,1,2,9
19550,251,-792.9620836452086,-689.0745476819798,-616.1807342346565,-356.1200085181199,-2379.458021457074,182.09892714570879,1,2,9
19551,255,-281.8644273952086,-90.36092463510477,-550.1983123596565,341.8577746850051,-420.0361464570742,-157.33491074491621,1,2,9
19552,259,29.201978854791378,-10.475670728854766,-289.9346404846565,566.2469348412551,1807.6826035429258,-294.4403794949162,1,2,9
19553,263,-625.4777086452086,-878.5503777601048,-294.3154998596565,-353.1026745337449,-626.7861464570742,160.05986464570879,1,2,9
19554,267,-833.6183336452086,-779.1746453382298,-589.8281951721565,-405.1822643774949,-2446.286146457074,211.55839980195879,1,2,9
19555,271,-366.4464586452086,-189.60262385385477,-578.0488982971565,204.2828235131301,-895.8330214570742,-95.84516465116621,1,2,9
19556,275,46.70588510479138,80.85343083364523,-310.9229217346565,587.9954699975051,1684.3232285429258,-305.1469224636662,1,2,9
19557,279,-483.3019273952086,-777.9676140882298,-261.7266326721565,-211.5936413306199,-20.06739645707421,66.47319472383379,1,2,9
19558,283,-862.7198961452086,-844.7322625257298,-579.8809295471565,-509.8553600806199,-2426.973646457074,226.06474745820879,1,2,9
19559,289,-478.8761461452086,-293.49349299447977,-587.1231170471565,58.1470813256301,-1345.6611464570742,-27.158397073041215,1,2,9
19560,293,24.127760104791378,127.72525700552023,-352.4297576721565,621.3885364037551,1408.3388535429258,-298.1286119167912,1,2,9
19561,297,-344.4972398952086,-619.6502312757298,-215.99518735965648,-3.700086643119903,592.6357285429258,6.995167380083785,1,2,9
19562,301,-875.5948961452086,-908.7698601819798,-505.5391326721565,-533.4364147681199,-2301.223646457074,254.63017714570879,1,2,9
19563,305,-562.7394273952086,-396.15511408822977,-618.4824920471565,-13.646619846244903,-1701.6611464570742,19.892140036333785,1,2,9
19564,309,-20.575364895208622,123.41129216177023,-403.6602264221565,601.6522082787551,1022.1669785429258,-292.3170884792912,1,2,9
19565,313,-223.57145864520862,-462.27156916635477,-194.38092954715648,150.9293078881301,1115.0888535429258,-75.46039902616621,1,2,9
19566,317,-846.8527086452086,-949.8301629163548,-464.9932342346565,-565.2877331274949,-2029.3955214570742,264.8225599582088,1,2,9
19567,321,-644.9034898952086,-497.47542658822977,-656.9727264221565,-122.9466686743699,-2006.0048964570742,61.555714255083785,1,2,9
19568,325,-116.01677114520862,67.30826481802023,-447.4697967346565,498.4988879662551,538.7451035429258,-250.51923691679121,1,2,9
19569,361,-88.52458364520862,-273.48861018197977,-175.24811704715648,311.3699817162551,1495.1513535429258,-146.58369004179121,1,2,9
19570,365,-795.6417711452086,-963.8445672132298,-373.2842498596565,-533.6822643774949,-1650.3642714570742,253.33379042695879,1,2,9
19571,369,-727.0675523952086,-598.5054558851048,-639.8955779846565,-251.5362682837449,-2219.004896457074,114.68584120820879,1,2,9
19572,373,-181.05973989520862,14.558264818020234,-527.6904998596565,396.7759875756301,35.38572854292579,-222.28901230741621,1,2,9
19573,377,-30.743333645208622,-134.32674494760477,-219.59382017215648,430.4378528100051,1736.8701035429258,-232.97309433866621,1,2,9
19574,381,-709.8136461452086,-941.5376824476048,-314.1641326721565,-428.3162975806199,-1171.6767714570742,215.67119277070879,1,2,9
19575,385,-793.1613023952086,-690.5052117444798,-599.2158904846565,-319.8431530493699,-2393.489271457074,174.76738417695879,1,2,9
19576,389,-282.7159898952086,-91.59017268197977,-525.7901092346565,281.9105090600051,-482.4111464570742,-131.56342636991621,1,2,9
19577,393,38.47932260479138,10.713782396145234,-256.1612029846565,536.6307239037551,1776.5576035429258,-267.7077134792912,1,2,9
19578,397,-598.4347398952086,-863.4182976819798,-268.6778045471565,-294.9210339087449,-564.5517714570742,150.96269667695879,1,2,9
19579,389,-838.4933336452086,-770.5691765882298,-602.0098357971565,-421.3424206274949,-2451.708021457074,202.59550917695879,1,2,9
19580,393,-380.2355211452086,-193.62581721322977,-582.3174529846565,194.1129016381301,-948.2705214570742,-93.07368027616621,1,2,9
19581,397,44.67072885479138,84.07218083364523,-303.3233123596565,631.0892199975051,1665.5888535429258,-306.2868150417912,1,2,9
19582,401,-467.1847398952086,-755.6604851819798,-223.12507017215648,-174.1544323462449,32.57322854292579,86.41093886445879,1,2,9
19583,405,-862.7863023952086,-847.7495965101048,-543.6719451721565,-486.1849499243699,-2427.129896457074,241.06279433320879,1,2,9
19584,409,-481.1769273952086,-302.97054377572977,-584.3965545471565,85.3716907006301,-1365.7392714570742,-33.729686135541215,1,2,9
19585,413,30.030103854791378,136.50943669302023,-359.4932342346565,596.5560168725051,1381.1669785429258,-308.9467271511662,1,2,9
19586,417,-335.4659898952086,-600.8745965101048,-200.68366392215648,-17.558240939994903,621.4482285429258,6.793995505083785,1,2,9
19587,421,-872.9581773952086,-916.1682976819798,-482.3604217346565,-546.0428600806199,-2269.598646457074,267.1472669894588,1,2,9
19588,425,-574.2941148952086,-408.89559260385477,-611.3076873596565,-23.928358127494903,-1742.3642714570742,21.970753317583785,1,2,9
19589,431,-32.10661489520862,120.17032536489523,-405.6494842346565,580.3509387475051,966.5888535429258,-301.1684068386662,1,2,9
19590,435,-205.33317739520862,-437.19295588510477,-185.90924985965648,160.9651965600051,1140.2763535429258,-83.21650254179121,1,2,9
19591,439,-837.6417711452086,-944.7115105726048,-433.0078826721565,-551.6085339087449,-2012.3955214570742,272.9363294894588,1,2,9
19592,443,-656.5480211452086,-506.46102229135477,-619.0420623596565,-132.4908581274949,-2035.1455214570742,79.63823378633379,1,2,9
19593,447,-104.84098989520862,73.56680973989523,-448.3633514221565,498.0965442162551,489.7763535429258,-253.31318222929121,1,2,9
19594,451,-93.79802114520862,-267.07381526010477,-187.87604673465648,317.2708606225051,1527.5888535429258,-158.16181504179121,1,2,9
19595,455,-794.8175523952086,-969.4995965101048,-377.3740936096565,-528.8319225806199,-1621.5048964570742,251.29961073945879,1,2,9
19596,459,-721.1222398952086,-591.5093621351048,-622.4395232971565,-238.9522839087449,-2258.692396457074,123.29130995820879,1,2,9
19597,463,-167.22380239520862,22.336585130520234,-496.5762420471565,401.8946399193801,-26.64552145707421,-205.92768418241621,1,2,9
19598,467,-14.383958645208622,-107.28109065072977,-199.83503110965648,466.9830188256301,1737.0263535429258,-228.07807480741621,1,2,9
19599,463,-691.0597398952086,-929.3335808851048,-295.0752654846565,-473.8468151587449,-1118.2705214570742,222.75664198945879,1,2,9
19600,467,-789.4073961452086,-685.0513543226048,-603.3057342346565,-336.8082409399949,-2402.473646457074,176.77910292695879,1,2,9
19601,471,-290.1144273952086,-92.37239924447977,-545.6612029846565,327.1280383568801,-514.1923964570742,-155.77021347929121,1,2,9
19602,475,35.03791635479138,14.446448411770234,-250.08112485965648,557.4178332787551,1781.6669785429258,-277.9000962917912,1,2,9
19603,479,-583.8370836452086,-853.3377312757298,-241.83405454715648,-320.9608288306199,-534.5205214570742,158.69658339570879,1,2,9
19604,483,-843.4777086452086,-780.4710320569798,-563.4307342346565,-418.7274303931199,-2472.551771457074,211.04423964570879,1,2,9
19605,487,-389.2003648952086,-199.95150080697977,-551.9414764221565,186.0215930443801,-1015.0048964570742,-82.21064316679121,1,2,9
19606,491,47.48713510479138,103.63004216177023,-295.1201873596565,595.7288684350051,1598.7607285429258,-297.8378404324162,1,2,9
19607,495,-453.1925523952086,-732.8169793226048,-218.20807798465648,-179.9212780493699,54.29197854292579,84.30986464570879,1,2,9
19608,499,-869.1144273952086,-855.1927117444798,-547.7617889221565,-505.4520397681199,-2452.114271457074,244.03545058320879,1,2,9
19609,493,-492.5988023952086,-314.90633479135477,-606.0332732971565,64.4727649193801,-1432.9267714570742,-27.448924416791215,1,2,9
19610,497,26.319166354791378,137.29166325552023,-346.1270232971565,604.4686145287551,1334.7763535429258,-301.6376451199162,1,2,9
19611,501,-307.6808336452086,-578.3440789319798,-176.25397642215648,-1.6436901587449029,661.1044785429258,0.35673964570878525,1,2,9
19612,505,-865.0011461452086,-914.5813836194798,-491.4805389221565,-545.1041393774949,-2277.520521457074,259.2571302707088,1,2,9
19613,509,-586.4542711452086,-424.65340510385477,-628.6748748596565,-70.7552624243699,-1778.7861464570742,19.311085348833785,1,2,9
19614,513,-48.26677114520862,107.22867497427023,-445.5254607971565,567.8338489037551,905.3544785429258,-298.3744615261662,1,2,9
19615,517,-252.85270864520862,-485.65145197885477,-316.4434295471565,157.0535754662551,1138.2451035429258,-133.59736191679121,1,2,9
19616,521,-918.0636461452086,-1018.6958855726048,-564.0117889221565,-645.0833874243699,-2042.2705214570742,238.31328261445879,1,2,9
19617,525,-701.6105211452086,-544.7271355726048,-648.4346404846565,-194.4498425024949,-2084.942396457074,75.39140761445879,1,2,9
19618,529,-194.60661489520862,-9.626305494479766,-518.5703826721565,511.4183215600051,458.3701035429258,-314.8476060574162,1,2,9
19619,536,-210.74333364520862,-388.82357111947977,-450.3311248596565,201.8240832787551,1510.6201035429258,-240.72919785429121,1,2,9
19620,540,-822.5753648952086,-1017.5782097913548,-533.0987029846565,-652.0572643774949,-1639.0517714570742,224.99150527070879,1,2,9
19621,544,-859.2120836452086,-699.4681023694798,-807.6904998596565,-335.4000378149949,-2303.614271457074,49.262257223833785,1,2,9
19622,548,-496.2863023952086,-201.40438166635477,-826.1748748596565,321.0706653100051,-126.70802145707421,-300.9894517605412,1,2,9
19623,552,-202.54020864520862,-229.79110041635477,-397.2002654846565,457.6622180443801,1695.4482285429258,-246.09369980741621,1,2,9
19624,556,-732.8331773952086,-981.1673211194798,-403.0342498596565,-457.1722546118699,-1069.7236464570742,181.40605605195879,1,2,9
19625,560,-691.9777086452086,-613.6597527601048,-456.5225311096565,-346.2406139868699,-2391.145521457074,149.28642714570879,1,2,9
19626,564,-347.0870836452086,-102.83309260385477,-533.3897186096565,208.6190051537551,-550.2548964570742,-210.30854355741621,1,2,9
19627,568,-363.0714586452086,-259.02718440072977,-682.9004607971565,486.2723254662551,1734.9013535429258,-432.0824693386662,1,2,9
19628,572,-1048.7081773952086,-1273.9527215101048,-901.6123748596565,-368.8158092993699,-548.0673964570742,-8.293406838666215,1,2,9
19629,572,-1137.6261461452086,-1067.9367302991673,-1139.1221404846565,-654.0687389868699,-2561.083021457074,136.12138808320879,1,2,9
19630,576,-611.8448961452086,-357.55355158822977,-808.8750701721565,-155.1331921118699,-1167.8330214570742,-184.15693222929121,1,2,9
19631,580,-221.94255239520862,-111.25960627572977,-441.7031951721565,506.3221301537551,1564.4951035429258,-436.5751451199162,1,2,9
