,time,ch1,ch2,ch3,ch4,ch5,ch6,tag,ID,Repeticion
15491,0,295.0415886976043,574.1925824863943,-17.682414467939452,474.11685466956715,1180.74061252494,-209.0540976153161,2,2,8
15492,3,382.4829949476043,317.46040475201926,248.45918709456055,431.11221599769215,2401.13123752494,-188.8705038653161,2,2,8
15493,7,-306.4857550523957,-461.58720266985574,51.11543709456055,-444.91976642418285,-517.2750124750601,300.2972207440589,2,2,8
15494,11,-303.9857550523957,-125.52885306048074,-204.99003165543945,-253.54403400230785,-1318.24376247506,216.2100625409339,2,2,8
15495,15,199.8697136976043,492.94404733014426,-46.94120353043945,354.22207927894215,699.3343625249399,-140.0768026934411,2,2,8
15496,19,439.3892449476043,471.95576608014426,230.01875740706055,528.8785734195671,2537.00623752494,-233.4623007403161,2,2,8
15497,23,-206.9115363023957,-405.46208059954347,132.74434334456055,-321.13583087730785,1.9124875249399338,256.0633340253089,2,2,8
15498,28,-363.7982550523957,-219.31669485735574,-164.08671134293945,-329.49545001793285,-1429.22813747506,277.1185098065589,2,2,8
15499,31,112.60799494760431,395.35615670514426,-96.36112540543945,261.50699138831715,226.25623752493993,-57.129292927816095,2,2,8
15500,35,469.0064324476043,579.2216352207693,162.44942146956055,579.1925382633171,2531.44373752494,-264.9559530840661,2,2,8
15501,33,-99.64591130239569,-315.71977102923074,180.86739021956055,-214.62972736168285,581.3968625249399,171.5960488690589,2,2,8
15502,37,-412.5013800523957,-307.29313528704347,-140.77421134293945,-411.77206134605785,-1472.33751247506,281.0076699628089,2,2,8
15503,41,8.268151197604311,280.15547311139426,-132.79471915543945,156.23038006019215,-218.16563747506007,-5.0274862871910955,2,2,8
15504,45,465.1392449476043,649.5402387363943,132.56563240706055,643.2970304508171,2333.80311252494,-281.1385702715661,2,2,8
15505,49,33.95174494760431,-176.37895071673074,214.23848396956055,-42.70003986168285,1149.20936252494,81.0491738690589,2,2,8
15506,53,-421.3295050523957,-368.20170462298074,-117.77421134293945,-530.3482332210579,-1390.66563747506,331.9920449628089,2,2,8
15507,57,-85.72013005239569,160.75239693951926,-165.09257071793945,20.622225763317147,-572.0093874750601,48.348490275308905,2,2,8
15508,61,430.3150261976043,665.3429731113943,86.29707771956055,668.2862882633171,2008.63123752494,-293.0521444903161,2,2,8
15509,65,164.8228386976043,-10.529097201105742,251.05196053206055,135.73379802894215,1682.31873752494,7.2435098065589045,2,2,8
15510,69,-407.2474738023957,-426.04801809954347,-45.60038321793945,-481.06258868980785,-1199.82188747506,341.4246621503089,2,2,8
15511,73,-162.1380988023957,75.10054147076926,-201.79374259293945,-63.88949298668285,-897.1656374750601,111.0228066815589,2,2,8
15512,77,364.0181511976043,643.6618207676443,26.685749594560548,553.0184659976921,1594.00623752494,-243.2970175371911,2,2,8
15513,81,290.9751824476043,171.70478951764426,275.57246834456055,311.23965740394215,2127.36561252494,-100.8717245684411,2,2,8
15514,85,-367.1966925523957,-455.55229056048074,3.886921469560548,-489.55624103355785,-886.5406374750601,331.5452676190589,2,2,8
15515,89,-242.0013800523957,-27.404585482355742,-188.00272696793945,-171.35677814293285,-1157.69688747506,170.9925332440589,2,2,8
15516,93,274.8814324476043,570.5268110020193,-25.975383217939452,435.89541912269215,1133.28748752494,-200.1805624590661,2,2,8
15517,97,377.9244011976043,339.63325631451926,249.59981209456055,421.21036052894215,2420.67811252494,-185.5626425371911,2,2,8
15518,101,-306.3763800523957,-450.94779837298074,83.77168709456055,-405.02181720543285,-470.24376247506007,292.7869668378089,2,2,8
15519,105,-317.0599738023957,-126.31107962298074,-175.37479728043945,-246.79403400230785,-1352.75938747506,224.1673379315589,2,2,8
15520,109,195.8697136976043,489.56880318951926,-64.15214103043945,336.25137615394215,627.0687375249399,-132.4994101153161,2,2,8
15521,100,442.9009636976043,487.13252389264426,204.60567146956055,557.6676359195671,2562.88123752494,-244.6380819903161,2,2,8
15522,104,-202.3295050523957,-378.30460989641824,126.91035896956055,-315.97250079918285,69.91248752493993,249.5142617596839,2,2,8
15523,108,-352.7123175523957,-211.67240774798074,-145.82499259293945,-359.37972736168285,-1452.11876247506,282.7064004315589,2,2,8
15524,112,106.41658869760431,391.22114693951926,-92.60624259293945,248.65494060706715,161.03748752493993,-58.962300740316095,2,2,8
15525,116,479.6236199476043,611.6093305332693,190.79219490706055,626.1085538883171,2501.97498752494,-275.1705526934411,2,2,8
15526,120,-70.40763005239569,-276.47013724016824,195.88789803206055,-177.50350665855785,618.9593625249399,173.8536172284339,2,2,8
15527,124,-399.6068488023957,-304.65568411516824,-145.17753165543945,-428.26766681480785,-1454.40001247506,304.9466348065589,2,2,8
15528,128,-3.934973802395689,271.28169381451926,-148.39628165543945,136.85147381019215,-242.07188747506007,-2.2557577715660955,2,2,8
15529,132,470.6587761976043,664.6276410801443,129.43672615706055,629.7965421695671,2300.38123752494,-298.8412069903161,2,2,8
15530,136,58.40486994760431,-144.86308157610574,237.52949959456055,-81.83797931480785,1194.42811252494,86.1006875409339,2,2,8
15531,143,-424.8607550523957,-375.64481985735574,-102.84257071793945,-452.02767658043285,-1377.21251247506,341.3797402753089,2,2,8
15532,147,-86.50138005239569,168.10615670514426,-170.12186759293945,51.44546795081715,-612.1500124750601,44.995707072183905,2,2,8
15533,151,429.0415886976043,678.6198285801443,60.83906990706055,579.7289152164421,1967.97498752494,-295.5555624590661,2,2,8
15534,155,187.7525261976043,22.864457486394258,237.68574959456055,153.70474529456715,1725.94373752494,4.5613809003089045,2,2,8
15535,159,-388.6966925523957,-416.92851126360574,-26.601359780439452,-487.07528400230785,-1178.11876247506,355.6404824628089,2,2,8
15536,163,-180.4232550523957,63.87983834576926,-156.37577384293945,-59.79916095543285,-939.7437624750601,122.3104043378089,2,2,8
15537,167,356.0181511976043,651.5072797520193,33.03340584456055,555.5443449039421,1546.92811252494,-240.3243612871911,2,2,8
15538,171,288.8501824476043,189.56367623639426,268.62031990706055,317.74405193519215,2167.03748752494,-110.5277304278161,2,2,8
15539,175,-359.8177863023957,-454.85941946673074,18.191608969560548,-480.50375079918285,-850.3843874750601,321.3079629315589,2,2,8
15540,179,-262.5677863023957,-51.29862845110574,-191.66874259293945,-175.87191486168285,-1173.22813747506,171.0372109784339,2,2,8
15541,184,286.3697136976043,574.1254438145193,-4.137492592939452,440.87979412269215,1080.22498752494,-177.6500448809411,2,2,8
15542,188,400.3658074476043,368.77998483014426,262.04903084456055,410.05679607581715,2437.27186252494,-183.0592245684411,2,2,8
15543,192,-273.3607550523957,-426.60673391985574,94.34395271956055,-423.79745197105785,-434.63438747506007,300.7669473065589,2,2,8
15544,196,-327.4740363023957,-136.74931204485574,-176.11210196793945,-243.30697345543285,-1345.90001247506,218.2664590253089,2,2,8
15545,200,191.7095574476043,490.35127389264426,-48.34940665543945,349.50601482581715,586.6624875249399,-112.6063437090661,2,2,8
15546,204,456.9126824476043,512.1889203770193,224.16328865706055,542.9603605289421,2534.89686252494,-239.1173300371911,2,2,8
15547,208,-181.8998175523957,-371.91203177141824,153.53145271956055,-300.70638751793285,102.49061252493993,240.6182656659339,2,2,8
15548,212,-365.0482550523957,-215.40507376360574,-156.48710196793945,-351.60116290855785,-1452.32188747506,268.6248574628089,2,2,8
15549,216,91.97518244760431,385.54390084576926,-104.29569571793945,252.29825115394215,120.75623752493993,-54.849507771566095,2,2,8
15550,220,484.8306511976043,622.3830121738943,179.66035896956055,617.4586515445671,2485.67811252494,-279.4623007403161,2,2,8
15551,215,-51.45450505239569,-267.30595266985574,197.78828865706055,-185.81844806480785,683.2406125249399,150.6077676190589,2,2,8
15552,219,-403.9427863023957,-299.69352591204347,-121.01542228043945,-432.64877033043285,-1471.69688747506,304.4769082440589,2,2,8
15553,223,-3.173255052395689,272.51118600201926,-147.97147696793945,132.42569256019215,-302.44688747506007,-2.7923788653160955,2,2,8
15554,227,454.2525261976043,659.1962445957693,118.66328865706055,625.1476163883171,2299.84998752494,-295.8907675371911,2,2,8
15555,231,44.65877619760431,-146.91947806048074,249.97969490706055,-88.52132892418285,1255.02186252494,82.3455605878089,2,2,8
15556,235,-404.8334113023957,-369.27458059954347,-64.42069571793945,-489.55624103355785,-1370.05626247506,354.6790566815589,2,2,8
15557,239,-96.91934880239569,152.03511178326926,-146.18339103043945,61.90591716956715,-654.0718874750601,75.6175332440589,2,2,8
15558,243,429.0415886976043,690.6005414707693,98.81465584456055,630.2887296695671,1919.59998752494,-269.9627890215661,2,2,8
15559,247,200.0025261976043,42.73506295514426,279.52852303206055,178.51504802894215,1783.94373752494,-18.595113240316095,2,2,8
15560,251,-407.8529425523957,-434.92167532610574,-18.063273842939452,-491.85848712730785,-1153.35313747506,357.9647012128089,2,2,8
15561,261,-188.8490363023957,48.43476998639426,-170.50175040543945,-94.62313556480785,-960.5718874750601,133.5757851971839,2,2,8
15562,265,354.3189324476043,639.6833051426443,30.976765219560548,520.5638761539421,1490.89686252494,-237.9327597246911,2,2,8
15563,269,322.7603386976043,222.51020943951926,273.38203865706055,333.79263591956715,2186.28748752494,-113.0982870684411,2,2,8
15564,273,-346.3177863023957,-446.16459524798074,45.88594490706055,-453.16756915855785,-809.3687624750601,318.6702676190589,2,2,8
15565,277,-265.3841925523957,-50.02470266985574,-182.72831290543945,-172.18392658043285,-1202.04063747506,179.9778848065589,2,2,8
15566,281,271.1275261976043,573.3432172520193,-13.882609780439452,429.59219646644215,1007.6937375249399,-180.4439901934411,2,2,8
15567,285,402.2408074476043,381.18525826764426,250.58321053206055,461.66690349769215,2457.02186252494,-200.7394003496911,2,2,8
15568,289,-274.3685675523957,-427.03141653704347,85.20235115706055,-391.00741290855785,-390.43126247506007,291.5799355878089,2,2,8
15569,293,-319.6068488023957,-130.55790579485574,-165.42753165543945,-280.76864337730785,-1389.46251247506,230.9397988690589,2,2,8
15570,297,166.4751824476043,464.11030709576926,-43.05253165543945,336.16202068519215,539.5843625249399,-120.4964804278161,2,2,8
15571,293,468.2251824476043,527.3432172520193,229.28145271956055,572.6210050601921,2579.20936252494,-265.4254355059411,2,2,8
15572,297,-173.2474738023957,-362.39018118548074,160.17012459456055,-305.17660236168285,159.08436252493993,239.2994180096839,2,2,8
15573,301,-393.6380988023957,-244.99882376360574,-135.85624259293945,-380.77035236168285,-1468.49376247506,300.4539590253089,2,2,8
15574,305,92.80330744760431,376.29023873639426,-87.46464103043945,226.92886638831715,78.44373752493993,-37.325826130941095,2,2,8
15575,309,478.3931511976043,618.2477582676443,187.30489021956055,616.5421476383171,2474.66248752494,-288.5594687090661,2,2,8
15576,313,-42.87247380239569,-257.02409231829324,225.21309334456055,-194.24496173668285,725.0374875249399,154.1392617596839,2,2,8
15577,317,-398.8216925523957,-304.16386282610574,-97.92557853043945,-463.18124103355785,-1475.40001247506,335.5682168378089,2,2,8
15578,321,-14.372473802395689,263.48091256451926,-116.58964103043945,139.06412029456715,-337.44688747506007,22.755716837808905,2,2,8
15579,325,470.5025261976043,680.4303754551443,148.99434334456055,629.1261320133171,2231.74061252494,-289.7887167559411,2,2,8
15580,329,84.01815119760431,-111.46952688860574,254.49434334456055,-16.593350408557853,1295.31873752494,61.714701212808905,2,2,8
15581,326,-413.7552863023957,-380.98686087298074,-66.56620353043945,-501.80502033043285,-1363.10313747506,341.7151894940589,2,2,8
15582,330,-110.70841130239569,145.44136178326926,-148.99979728043945,58.75430584144215,-690.6343874750601,59.703226603433905,2,2,8
15583,334,411.2720574476043,669.1652387363943,77.82637459456055,618.3526945133171,1894.52186252494,-293.2979940996911,2,2,8
15584,338,209.7486199476043,60.66133248639426,272.50996834456055,190.60733318519215,1810.44373752494,-47.987447224691095,2,2,8
15585,342,-391.0013800523957,-423.96928274798074,-10.061320717939452,-499.18978595543285,-1144.83751247506,367.3304238690589,2,2,8
15586,346,-184.8959113023957,48.97139108014426,-178.81620353043945,-93.72909259605785,-1009.3218874750601,136.5262246503089,2,2,8
15587,350,351.3462761976043,640.8900922520193,34.77656990706055,495.48526287269215,1432.55311252494,-223.2252401934411,2,2,8
15588,354,327.5181511976043,235.51899850201926,271.66035896956055,328.56241131019215,2221.41248752494,-117.0321249590661,2,2,8
15589,358,-333.6224738023957,-437.76029837298074,55.11641365706055,-473.41830158043285,-783.1656374750601,336.4178262128089,2,2,8
15590,362,-271.1927863023957,-48.12480032610574,-194.82010978043945,-184.70077228355785,-1238.22813747506,178.6814980878089,2,2,8
15591,406,273.1587761976043,571.6444867832693,-12.631633217939452,449.26163006019215,954.9749875249399,-169.6034140215661,2,2,8
15592,410,425.4634636976043,412.16475045514426,286.21114021956055,482.11880779456715,2454.00623752494,-181.4498495684411,2,2,8
15593,414,-271.5287238023957,-429.78068411516824,110.12422615706055,-405.13363361168285,-335.57188747506007,296.0730996503089,2,2,8
15594,418,-319.3841925523957,-140.48197806048074,-174.70389884293945,-330.83651447105785,-1408.94688747506,246.6978555096839,2,2,8
15595,422,198.9986199476043,494.95576608014426,-63.86112540543945,321.25332927894215,480.28748752493993,-108.8514608965661,2,2,8
15596,426,475.3111199476043,557.6747602207693,252.68379646956055,619.6940031070671,2535.24061252494,-246.9403280840661,2,2,8
15597,430,-152.1498175523957,-345.78288138079324,199.01778084456055,-277.61703204918285,209.16248752493993,234.5831094159339,2,2,8
15598,434,-386.1263800523957,-246.72001516985574,-149.60233634293945,-367.96273517418285,-1471.61876247506,282.8628945721839,2,2,8
15599,438,71.92830744760431,361.51582467389426,-99.55741446793945,237.21084881019215,22.974987524939934,-41.796040974691095,2,2,8
15600,442,483.6001824476043,638.8786176426443,196.98360115706055,616.6539640445671,2445.20936252494,-284.1336874590661,2,2,8
15601,449,-32.85684880239569,-236.81815970110574,225.37031990706055,-144.78060626793285,781.2093625249399,135.3860879315589,2,2,8
15602,453,-405.4388800523957,-314.40104544329324,-114.13065665543945,-450.44076251793285,-1473.77501247506,302.9793496503089,2,2,8
15603,457,-25.75138005239569,257.35664498639426,-132.25760978043945,78.35684490394215,-403.19688747506007,23.716898478433905,2,2,8
15604,461,468.7603386976043,690.3769086582693,130.82246834456055,644.6158781070671,2183.91248752494,-275.9305624590661,2,2,8
15605,465,110.14705744760431,-82.50175345110574,265.67012459456055,43.53287029456715,1364.22498752494,63.547709025308905,2,2,8
15606,469,-407.5834113023957,-383.78080618548074,-65.53788321793945,-478.89437579918285,-1344.75938747506,340.2620644940589,2,2,8
15607,473,-104.58341130239569,144.72627389264426,-144.77518790543945,-8.412686346057853,-730.1343874750601,83.4407754315589,2,2,8
15608,477,411.5611199476043,678.1952680332693,74.56270271956055,567.7484464664421,1841.28748752494,-277.6739706621911,2,2,8
15609,481,226.8697136976043,89.60664498639426,258.09297615706055,170.75894451331715,1848.77186252494,-39.918599568441095,2,2,8
15610,485,-374.9974738023957,-420.23649466204347,18.303913657060548,-471.92074298668285,-1134.19688747506,344.9339394940589,2,2,8
15611,476,-192.6732550523957,31.246293423894258,-160.13065665543945,-120.79720783043285,-1018.5406374750601,132.7710976971839,2,2,8
15612,480,343.7251824476043,637.4032758457693,17.409382407060548,475.68155193519215,1391.20936252494,-232.0094198809411,2,2,8
15613,484,342.2056511976043,264.75508248639426,281.83028084456055,380.91006756019215,2241.70936252494,-129.8844198809411,2,2,8
15614,488,-319.0287238023957,-424.72917044329324,70.31563240706055,-462.42123126793285,-781.4312624750601,337.3563027753089,2,2,8
15615,492,-261.8295050523957,-45.46488821673074,-158.38749259293945,-190.15462970543285,-1271.07188747506,216.5899453534339,2,2,8
15616,496,264.5337761976043,565.4306195957693,-22.912883217939452,442.22085857581715,898.1937375249399,-168.1058554278161,2,2,8
15617,500,424.3931511976043,427.02876412701926,248.14668709456055,499.15079021644215,2454.24061252494,-210.8199667559411,2,2,8
15618,504,-245.8685675523957,-402.95866263079324,123.24531990706055,-389.35336017418285,-320.24376247506007,299.0008340253089,2,2,8
15619,508,-329.6420050523957,-146.00297415423074,-173.22831290543945,-315.27962970543285,-1459.75938747506,250.4083047284339,2,2,8
15620,512,159.7681511976043,463.57368600201926,-73.29374259293945,313.25137615394215,352.83436252493993,-105.7220663653161,2,2,8
15621,523,468.1783074476043,551.6173871738943,229.79610115706055,572.1293058414421,2498.70936252494,-253.6458944903161,2,2,8
15622,527,-143.4779425523957,-341.53605520891824,169.06563240706055,-279.69564533043285,244.17811252493993,217.3499551190589,2,2,8
15623,531,-376.9193488023957,-238.58378470110574,-153.17948478043945,-374.13192462730785,-1511.02501247506,281.0076699628089,2,2,8
15624,535,70.25252619760431,356.82197701764426,-115.29276603043945,177.86685466956715,-24.087512475060066,-41.416158162191095,2,2,8
15625,539,488.1158074476043,648.9367231113943,176.03926521956055,587.4403409976921,2405.17811252494,-278.9481405840661,2,2,8
15626,543,-11.759192552395689,-221.61894095110574,235.62910896956055,-110.09066486168285,821.1781125249399,143.4551797284339,2,2,8
15627,547,-406.3568488023957,-326.51566946673074,-115.62772696793945,-442.17049884605785,-1482.30626247506,314.3343301190589,2,2,8
15628,551,-24.80997380239569,248.68403756451926,-132.57108634293945,82.87198162269215,-446.05626247506007,9.165873087808905,2,2,8
15629,555,462.2564324476043,685.6608442051443,121.61348396956055,634.6471281070671,2162.34998752494,-300.8080038653161,2,2,8
15630,559,114.48690119760431,-77.24906790423074,251.43184334456055,48.00332927894215,1422.56873752494,42.872416056558905,2,2,8
15631,551,-411.5170050523957,-392.94499075579324,-68.60038321793945,-516.9595613460579,-1321.15001247506,337.4681191815589,2,2,8
15632,555,-128.4779425523957,125.41426217389426,-173.96659415543945,-18.962491033557853,-793.0875124750601,74.3436074628089,2,2,8
15633,559,387.8931511976043,647.2157758457693,38.68867928206055,557.2877531070671,1784.55311252494,-283.7984823809411,2,2,8
15634,563,227.6978386976043,87.61738717389426,246.73848396956055,252.52163982581715,1886.84998752494,-39.315083943441095,2,2,8
15635,567,-413.6654425523957,-465.72233450579324,-36.63749259293945,-472.07723712730785,-1113.46251247506,347.7947793378089,2,2,8
15636,571,-268.8920050523957,-56.81962454485574,-253.11405509293945,-156.51522540855785,-1088.58751247506,151.7476601971839,2,2,8
15637,575,232.5689324476043,491.84883248639426,-115.22538321793945,432.87784099769215,1314.45936252494,-264.1959433184411,2,2,8
15638,579,249.7798699476043,153.89033639264426,161.26485115706055,308.87051677894215,2262.09998752494,-176.4876913653161,2,2,8
15639,583,-437.1576300523957,-565.5228716151682,-68.73417228043945,-521.1392488460579,-763.1656374750601,294.3069863690589,2,2,8
15640,587,-371.8880988023957,-174.90385306048074,-323.11893790543945,-248.60433673668285,-1333.07188747506,157.2237344159339,2,2,8
15641,582,131.3814324476043,422.67012154889426,-195.06620353043945,372.17056560706715,814.9593625249399,-212.5186972246911,2,2,8
15642,586,314.0415886976043,326.19990670514426,139.20430428206055,423.35611248206715,2475.86561252494,-260.1278280840661,2,2,8
15643,590,-288.5170050523957,-457.13920462298074,53.66426521956055,-502.14022540855785,-289.05626247506007,259.4607949628089,2,2,8
15644,594,-401.7279425523957,-239.70146048235574,-236.77421134293945,-310.67513751793285,-1447.13438747506,228.9505410565589,2,2,8
15645,598,85.65096369760431,358.56538522076926,-186.66190665543945,208.51114177894215,353.44373752493993,-159.4110312090661,2,2,8
