,time,ch1,ch2,ch3,ch4,ch5,ch6,tag,ID,Repeticion
17485,0,-440.10933601547003,-777.3211282513098,-354.7338974394952,-279.852643833427,-468.0350548902061,161.6255657630054,1,2,8
17486,3,-728.26949226547,-745.4921487591223,-644.4126083769952,-476.838483677177,-2774.628804890206,262.8565227942554,1,2,8
17487,7,-298.84761726547003,-153.1486428997473,-616.8296005644952,124.71400655719799,-1237.675679890206,-35.5392291588696,1,2,8
17488,11,175.83597648452997,216.8174215533777,-348.9448349394952,601.834367885323,1730.543070109794,-302.6874225182446,1,2,8
17489,15,-295.20308601547003,-635.5887063763098,-277.3296005644952,-127.88291727092701,257.1211951097939,57.8240520911304,1,2,8
17490,19,-768.85933601547,-828.2830423138098,-610.4370224394952,-547.358259067802,-2713.503804890206,289.8125774817554,1,2,8
17491,23,-390.62105476547003,-260.6159280559973,-665.6235458769952,21.60536397907299,-1691.706929890206,14.014481778630397,1,2,8
17492,27,143.76175773452997,248.4675680377527,-407.5063583769952,571.659563197823,1304.355570109794,-293.4337604088696,1,2,8
17493,32,-155.07808601547003,-465.8717874309973,-249.1215927519952,29.33925069782299,848.9180701097939,-1.8998248619946025,1,2,8
17494,35,-748.07027351547,-882.7542337200598,-554.2895615019952,-526.369977817802,-2479.691304890206,290.5503704505054,1,2,8
17495,44,-481.16792976547003,-369.0216897747473,-684.8012802519952,-70.14854227092701,-2038.019429890206,55.0301067786304,1,2,8
17496,48,83.75003898452997,225.4451071002527,-452.1421005644952,536.790910854073,883.0586951097939,-276.7816607994946,1,2,8
17497,52,-21.238242265470035,-279.9501565716223,-230.8598740019952,247.022844447823,1398.558695109794,-114.7316119713696,1,2,8
17498,56,-716.26558601547,-924.8202737591223,-508.5805771269952,-561.484479770927,-2135.566304890206,272.4903118567554,1,2,8
17499,60,-560.62886726547,-458.0263284466223,-689.7192490019952,-187.584577427177,-2366.925679890206,138.4466106848804,1,2,8
17500,64,4.668007734529965,164.7156149127527,-504.6020615019952,444.701555385323,327.0586951097939,-193.0519244713696,1,2,8
17501,68,68.79691398452997,-114.9941018841223,-249.7475693144952,367.968156947823,1764.230570109794,-172.6671588463696,1,2,8
17502,72,-636.60152351547,-907.8776468059973,-418.4135849394952,-481.286481724052,-1640.831929890206,260.6660931067554,1,2,8
17503,76,-632.84761726547,-560.9337991497473,-674.3637802519952,-298.784528599052,-2597.941304890206,186.5030071692554,1,2,8
17504,80,-92.91792976547003,70.4582906940027,-556.5024521269952,353.797014369698,-246.59755489020608,-160.4855182213696,1,2,8
17505,72,148.41410148452997,54.0967184283777,-286.1137802519952,520.921037807198,1962.152445109794,-250.7865436119946,1,2,8
17506,76,-543.93355476547,-864.2917093059973,-376.6381943144952,-404.150495395927,-1036.425679890206,204.8316204505054,1,2,8
17507,80,-691.45308601547,-668.0880960247473,-659.6333115019952,-395.321637974052,-2748.941304890206,199.0869915442554,1,2,8
17508,84,-197.23433601547003,-39.5346292278723,-566.0473740019952,218.993791713448,-793.6444298902061,-103.4437701744946,1,2,8
17509,88,189.65238273452997,173.0749899127527,-276.2563583769952,546.625627650948,1883.246195109794,-290.2596881432446,1,2,8
17510,92,-397.66402351547003,-745.7381204388098,-294.9204208769952,-253.969098911552,-382.9725548902061,145.4427044348804,1,2,8
17511,96,-722.52339851547,-744.82161653256,-618.4838974394952,-472.099958286552,-2764.441304890206,258.1626751380054,1,2,8
17512,100,-302.46871101547003,-153.5732034466223,-617.7241318144952,85.77723897907299,-1293.425679890206,-22.575361971369603,1,2,8
17513,104,171.41410148452997,236.0176168658777,-335.8237411894952,647.342424525948,1680.855570109794,-294.1041705651196,1,2,8
17514,108,-263.32808601547003,-605.8384622356848,-238.5493271269952,-70.72959695842701,322.4493201097939,49.3750774817554,1,2,8
17515,104,-756.23042976547,-834.1392434856848,-591.9975693144952,-530.616803989677,-2673.300679890206,266.7012493567554,1,2,8
17516,108,-396.79292976547003,-266.5614846966223,-649.1733505644952,7.21083272907299,-1731.785054890206,31.895829434880397,1,2,8
17517,112,145.05863273452997,261.6326071002527,-390.8315536894952,573.872453822823,1287.199320109794,-273.8758990807446,1,2,8
17518,116,-135.67964851547003,-435.6076272747473,-239.3090927519952,85.21840108844799,951.8555701097939,-40.8590533776196,1,2,8
17519,120,-727.99996101547,-883.8047708294348,-521.7680771269952,-559.025739536552,-2434.831929890206,284.1353313880054,1,2,8
17520,124,-475.37886726547003,-364.8866800091223,-655.2749130644952,-119.68003641155201,-2123.769429890206,99.4651653723804,1,2,8
17521,128,73.42191398452997,221.1089254596277,-431.6460068144952,523.200822963448,797.0743201097939,-246.2267291588696,1,2,8
17522,132,-4.562461015470035,-250.7362893841223,-206.5190536894952,237.322160854073,1443.746195109794,-130.5565631432446,1,2,8
17523,136,-696.41792976547,-911.9009622356848,-460.7251083769952,-554.890729770927,-2077.706929890206,281.9898235755054,1,2,8
17524,140,-550.48042976547,-461.4687112591223,-654.7612411894952,-231.393903599052,-2428.535054890206,137.5750286536304,1,2,8
17525,155,11.328163984529965,175.3772360065027,-485.1108505644952,449.775529994698,239.74619510979392,-202.5738971276196,1,2,8
17526,159,93.08988273452997,-74.7162698528723,-224.2212021269952,440.007707729073,1811.793070109794,-208.4969928307446,1,2,8
17527,163,-622.54292976547,-900.6580423138098,-379.9907333769952,-456.520612583427,-1558.097554890206,234.0899212317554,1,2,8
17528,167,-641.63277351547,-579.9551614544348,-657.1753036894952,-316.330671177177,-2599.988179890206,173.7622845130054,1,2,8
17529,171,-102.55464851547003,64.0210348346277,-541.3706161894952,316.492082729073,-321.0506798902061,-155.4786822838696,1,2,8
17530,175,164.23832023452997,85.9033590533777,-230.4799911894952,530.621721400948,1936.824320109794,-248.1266315026196,1,2,8
17531,179,-502.71480476547003,-830.1606057903723,-320.1557724394952,-379.004987583427,-957.5819298902061,189.0288860755054,1,2,8
17532,183,-687.49996101547,-669.47396028256,-633.3481552519952,-405.782331333427,-2744.519429890206,216.5659954505054,1,2,8
17533,187,-207.94136726547003,-40.9875100872473,-569.1088974394952,225.922746791573,-870.0350548902061,-67.3905475182446,1,2,8
17534,191,192.64457023452997,189.9060446002527,-272.5239365019952,577.135637416573,1867.199320109794,-275.1947467369946,1,2,8
17535,185,-378.06246101547003,-722.1346048138098,-265.3042099394952,-274.711530552177,-281.4256798902061,143.4087688880054,1,2,8
17536,189,-728.49214851547,-757.1598733684973,-594.8579208769952,-458.085309849052,-2754.910054890206,262.2754681067554,1,2,8
17537,193,-300.78902351547003,-155.5627053997473,-596.5346786894952,116.26503194782299,-1368.988179890206,-22.418867830744603,1,2,8
17538,197,190.12113273452997,257.1623922565027,-328.4702255644952,610.417375697823,1633.496195109794,-286.4598834557446,1,2,8
17539,201,-244.80074226547003,-576.91536653256,-229.1616318144952,-56.98325906780201,434.5899451097939,47.2068645911304,1,2,8
17540,205,-744.35933601547,-837.2461770794348,-579.6147568144952,-549.772321567802,-2658.191304890206,272.5122845130054,1,2,8
17541,209,-418.60542976547003,-287.4601663372473,-642.6909286894952,-57.29624734905201,-1818.269429890206,15.243973966130397,1,2,8
17542,213,137.14847648452997,264.9631735065027,-373.2631943144952,575.951067104073,1186.839945109794,-274.6134479088696,1,2,8
17543,217,-91.10933601547003,-388.8700784466223,-178.2221786894952,140.226213588448,1058.543070109794,-39.4508502526196,1,2,8
17544,221,-724.15621101547,-881.8155130169348,-495.6167099394952,-545.882917270927,-2392.128804890206,286.6387493567554,1,2,8
17545,214,-492.57027351547003,-381.5834573528723,-636.7905380644952,-103.47495828655201,-2144.691304890206,83.5283977942554,1,2,8
17546,218,66.13675773452997,217.3537985065027,-434.1938583769952,509.342912807198,732.1524451097939,-269.1820514244946,1,2,8
17547,222,19.554726484529965,-213.3195413372473,-194.5835068144952,289.222795619698,1530.668070109794,-147.1193072838696,1,2,8
17548,226,-678.44527351547,-901.5744241497473,-421.8335068144952,-535.422468052177,-2003.691304890206,279.5757610755054,1,2,8
17549,230,-563.98433601547,-477.5170511028723,-622.0161240019952,-243.977887974052,-2437.535054890206,151.7012493567554,1,2,8
17550,234,-4.249961015470035,163.2849508502527,-460.3012802519952,413.185686244698,150.18369510979392,-188.7604205651196,1,2,8
17551,238,110.41410148452997,-37.2323831341223,-205.9829208769952,450.892961635323,1831.902445109794,-186.2123248619946,1,2,8
17552,242,-607.12105476547,-889.2586282513098,-366.3344833769952,-461.795759067802,-1485.785054890206,245.3550579505054,1,2,8
17553,246,-640.06636726547,-582.6150735638098,-636.2309677519952,-317.381208286552,-2642.441304890206,181.7866985755054,1,2,8
17554,250,-106.21871101547003,60.8022848346277,-506.5239365019952,298.856584682198,-415.4413048902061,-135.7867877526196,1,2,8
17555,265,182.32035148452997,117.2627340533777,-212.6879990019952,531.269914760323,1946.683695109794,-244.3268268151196,1,2,8
17556,269,-487.87496101547003,-818.2024759075598,-308.3979599394952,-388.191511020927,-839.9256798902061,189.2075970130054,1,2,8
17557,273,-688.39058601547,-672.0443948528723,-614.0356552519952,-405.916364536552,-2746.285054890206,219.9634563880054,1,2,8
17558,277,-213.48433601547003,-53.1916116497473,-566.0913193144952,216.378557338448,-944.4881798902061,-73.0008990807446,1,2,8
17559,281,183.32425773452997,209.8660055377527,-275.2055771269952,612.116106166573,1861.183695109794,-294.2606647057446,1,2,8
17560,285,-358.74996101547003,-703.7167581341223,-249.8588974394952,-200.839216099052,-159.92567989020608,113.0999309973804,1,2,8
17561,289,-717.33589851547,-764.82649934506,-573.1772568144952,-509.181501255302,-2755.363179890206,264.1978313880054,1,2,8
17562,293,-321.13277351547003,-175.0087503216223,-597.7641708769952,81.12806905719799,-1426.800679890206,-11.287520174494603,1,2,8
17563,297,186.36722648452997,265.4770895221277,-309.4262802519952,620.252092494698,1577.183695109794,-299.7369830651196,1,2,8
17564,301,-212.16792976547003,-541.2196878216223,-194.4936630644952,-57.02793680217701,497.7305701097939,21.099930997380397,1,2,8
17565,295,-728.55855476547,-828.4842141888098,-525.5229599394952,-589.960553989677,-2657.097554890206,281.3189251380054,1,2,8
17566,299,-399.16011726547003,-273.4010843059973,-597.5180771269952,-18.96299539592701,-1843.722554890206,50.9842083411304,1,2,8
17567,303,135.71488273452997,272.6968160846277,-358.2202255644952,605.857805385323,1161.558695109794,-269.5619342369946,1,2,8
17568,307,-79.46480476547003,-364.6183694622473,-180.7924911894952,155.849992885323,1097.683695109794,-59.7909381432446,1,2,8
17569,311,-719.82027351547,-881.7931741497473,-469.1743271269952,-543.469098911552,-2368.097554890206,280.7154095130054,1,2,8
17570,315,-493.50777351547003,-384.3551858684973,-612.0913193144952,-132.152204380302,-2193.035054890206,96.1348431067554,1,2,8
17571,319,66.20316398452997,226.5181051471277,-405.9409286894952,496.781145229073,645.9024451097939,-246.3385455651196,1,2,8
17572,323,40.898476484529965,-176.3051370403723,-163.6264755644952,323.331682338448,1601.324320109794,-146.4708697838696,1,2,8
17573,327,-664.56636726547,-898.4899514934973,-398.4311630644952,-526.459333286552,-1929.331929890206,281.0508587317554,1,2,8
17574,331,-579.42574226547,-496.4267190716223,-626.2397568144952,-248.001325474052,-2474.941304890206,158.0716106848804,1,2,8
17575,326,-27.898398515470035,141.9839254596277,-469.0854599394952,405.027238979073,80.58994510979392,-179.0375201744946,1,2,8
17576,330,138.24222648452997,2.5088278033776987,-187.4975693144952,446.534563197823,1875.949320109794,-219.5612018151196,1,2,8
17577,334,-582.10933601547,-877.7698587200598,-346.9106552519952,-463.583845005302,-1383.722554890206,222.5337688880054,1,2,8
17578,338,-647.01949226547,-594.8638528606848,-641.9087021269952,-343.219831333427,-2680.128804890206,181.6304485755054,1,2,8
17579,342,-131.87886726547003,49.1794821002527,-514.1684677519952,302.812639369698,-497.3631798902061,-127.4943072838696,1,2,8
17580,346,180.89066398452997,137.8711324908777,-214.7895615019952,541.887102260323,1938.839945109794,-240.9740436119946,1,2,8
17581,350,-464.07027351547003,-792.0285257122473,-274.8481552519952,-379.094343052177,-765.6913048902061,188.8277142005054,1,2,8
17582,354,-682.51558601547,-677.3194192669348,-568.2817490019952,-424.803571567802,-2768.331929890206,235.5874798255054,1,2,8
17583,358,-221.01558601547003,-68.6813577434973,-536.8999130644952,223.396867885323,-1011.3631798902061,-90.0997760338696,1,2,8
17584,362,211.04300773452997,236.5093160846277,-245.5004990019952,612.004533900948,1822.918070109794,-295.9371783776196,1,2,8
17585,412,-322.49605476547003,-661.7848733684973,-207.7485458769952,-192.457136020927,-66.62880489020608,108.7859661536304,1,2,8
17586,416,-721.31636726547,-762.9712747356848,-544.2319443144952,-503.079450474052,-2751.206929890206,271.2832806067554,1,2,8
17587,420,-320.19136726547003,-179.3671487591223,-588.9799911894952,66.39833272907299,-1506.863179890206,-4.9174029869946025,1,2,8
17588,424,196.17972648452997,275.9824606158777,-318.4340927519952,618.397112025948,1522.339945109794,-314.3773639244946,1,2,8
17589,428,-183.17574226547003,-503.8251565716223,-164.2514755644952,-4.00962625530201,612.5274451097939,-3.1293170494946025,1,2,8
17590,432,-725.83199226547,-824.1256936809973,-483.0991318144952,-583.210309849052,-2609.566304890206,307.0010540442554,1,2,8
17591,436,-417.42183601547003,-288.2201761028723,-590.7905380644952,-63.42051492717701,-1917.706929890206,48.1902630286304,1,2,8
17592,440,138.51175773452997,278.2624899127527,-348.3852646269952,558.404924525948,1078.761820109794,-270.1654498619946,1,2,8
17593,444,-50.808554765470035,-324.2958596966223,-161.5473740019952,190.226946010323,1189.293070109794,-84.4896686119946,1,2,8
17594,448,-705.96089851547,-883.0225442669348,-449.1694443144952,-550.174421177177,-2327.363179890206,267.0811321692554,1,2,8
17595,441,-500.97261726547003,-394.5475686809973,-608.5825302519952,-137.226178989677,-2246.441304890206,97.5877239661304,1,2,8
17596,445,60.503945234529965,227.1887594440027,-410.9702255644952,477.826799525948,538.2774451097939,-226.4232623619946,1,2,8
17597,449,66.78519523452997,-136.1166604778723,-157.8149521269952,340.564836635323,1640.918070109794,-141.3971393151196,1,2,8
17598,453,-648.65230476547,-883.8942483684973,-364.4565536894952,-510.164899692802,-1865.566304890206,268.8692181067554,1,2,8
17599,457,-574.10933601547,-486.4577249309973,-615.1538193144952,-245.363874302177,-2510.972554890206,157.4456341223804,1,2,8
17600,461,-5.121054765470035,160.7146383502527,-476.9301865019952,399.372209682198,-7.097554890206084,-175.4835650963696,1,2,8
17601,465,155.65238273452997,34.5166403033777,-187.3413193144952,475.524553432198,1886.871195109794,-220.3658893151196,1,2,8
17602,469,-557.30074226547,-854.5240091106848,-299.0551865019952,-437.410016880302,-1306.581929890206,225.3950970130054,1,2,8
17603,473,-648.80855476547,-594.6626809856848,-559.1850693144952,-353.322614536552,-2696.472554890206,204.2281048255054,1,2,8
17604,477,-127.85542976547003,39.2776266315027,-475.7231552519952,283.746721400948,-574.5038048902061,-121.8839557213696,1,2,8
17605,489,207.08597648452997,160.5803610065027,-214.1635849394952,568.262102260323,1950.589945109794,-273.8758990807446,1,2,8
17606,493,-420.82027351547003,-759.3056253216223,-290.9194443144952,-314.341169224052,-651.3475548902061,161.5359661536304,1,2,8
17607,497,-685.37496101547,-679.0404886028723,-587.1245224394952,-449.546979770927,-2797.644429890206,230.6031048255054,1,2,8
17608,501,-232.32808601547003,-72.7941507122473,-498.9692490019952,162.890764369698,-1115.566304890206,-58.2262408776196,1,2,8
17609,505,200.37894523452997,249.3838278033777,-212.7329208769952,569.871477260323,1765.636820109794,-281.7438190026196,1,2,8
17610,509,-305.82027351547003,-637.7567971966223,-172.2094833769952,-162.617536411552,20.902445109793916,95.8218548255054,1,2,8
17611,513,-718.52339851547,-762.1889261028723,-512.7153427519952,-476.614850864677,-2739.910054890206,258.8780071692554,1,2,8
17612,517,-331.41402351547003,-182.7646096966223,-555.4526474394952,61.30214132282299,-1573.628804890206,-5.2972857994946025,1,2,8
17613,521,185.29300773452997,286.9126363971277,-303.7270615019952,605.678850307198,1442.136820109794,-295.8475787682446,1,2,8
17614,525,-167.35152351547003,-482.5685647747473,-209.4692490019952,16.62098897907299,653.7930701097939,-3.8893268151196025,1,2,8
17615,518,-707.61324226547,-841.8728860638098,-531.4692490019952,-553.884870395927,-2623.035054890206,278.3911907630054,1,2,8
17616,522,-425.96089851547003,-294.7917093059973,-565.1528427519952,-63.53233133342701,-2022.316304890206,61.0650188880054,1,2,8
17617,526,128.63285148452997,285.6384664752527,-307.5717880644952,557.108537807198,970.6993201097939,-264.1305377526196,1,2,8
17618,530,-21.058554765470035,-282.2074807903723,-121.5825302519952,198.787737025948,1231.636820109794,-90.5692584557446,1,2,8
17619,534,-686.55855476547,-869.8349221966223,-404.5776474394952,-550.196882114677,-2266.378804890206,273.2500774817554,1,2,8
17620,538,-513.96089851547,-404.3598245403723,-572.2827255644952,-163.400007114677,-2310.097554890206,111.8704388098804,1,2,8
17621,542,51.964882734529965,220.3266988971277,-384.9526474394952,483.995988979073,477.1211951097939,-228.9935748619946,1,2,8
17622,546,91.68363273452997,-106.5675882122473,-150.2592880644952,360.636613979073,1690.199320109794,-169.1581256432446,1,2,8
17623,550,-620.62105476547,-864.7387307903723,-372.4585068144952,-508.913190708427,-1813.722554890206,258.2295696692554,1,2,8
17624,554,-580.92574226547,-499.3324807903723,-647.4741318144952,-274.197614536552,-2566.863179890206,146.8286907630054,1,2,8
17625,547,-41.687461015470035,133.3337789752527,-470.3139755644952,379.054582729073,-107.23817989020608,-202.5292193932446,1,2,8
17626,551,132.76566398452997,47.7712789752527,-171.3823349394952,491.237932338448,1900.199320109794,-251.1442096276196,1,2,8
17627,555,-571.96089851547,-861.8330911419348,-319.1049911894952,-419.550886020927,-1226.035054890206,198.6846477942554,1,2,8
17628,559,-711.72652351547,-643.7470315716223,-638.7573349394952,-374.623884067802,-2708.738179890206,173.4273235755054,1,2,8
17629,563,-314.13667976547003,-77.6891702434973,-679.7280380644952,226.816789760323,-658.5506798902061,-213.5485065026196,1,2,8
17630,567,12.246132734529965,5.146523115877699,-529.4126083769952,508.024065150948,1920.496195109794,-445.2467486901196,1,2,8
17631,571,-384.41011726547003,-773.5883401653723,-303.1010849394952,-304.774762974052,-550.9413048902061,106.4837200598804,1,2,8
17632,575,-604.61714851547,-604.29622590756,-357.7065536894952,-410.431501255302,-2742.331929890206,307.3365032630054,1,2,8
17633,579,-184.69527351547003,-34.2597268841223,-425.4546005644952,155.492326869698,-1123.488179890206,-19.401289705744603,1,2,8
17634,583,193.67582023452997,256.7153707721277,-228.4682724394952,617.190080775948,1769.730570109794,-314.8690631432446,1,2,8
17635,592,-374.28511726547003,-681.45442903256,-287.5669052519952,-88.52158914592701,151.37119510979392,18.529618497380397,1,2,8
17636,596,-938.28511726547,-920.0816262981848,-814.7319443144952,-527.822858677177,-2700.863179890206,141.8665325598804,1,2,8
17637,600,-558.99996101547,-376.8896096966223,-867.7055771269952,-24.37217508342701,-1606.144429890206,-157.0880572838696,1,2,8
17638,604,279.17191398452997,312.0806051471277,-263.3149521269952,606.729387416573,1474.668070109794,-276.9381549401196,1,2,8
17639,608,-87.95699226547003,-398.5485452434973,-133.2055771269952,51.06508077594799,867.7930701097939,24.072831388005397,1,2,8
17640,612,-889.96089851547,-929.9611428997473,-628.0063583769952,-595.772077427177,-2495.722554890206,198.1704876380054,1,2,8
17641,616,-529.94136726547,-376.4201272747473,-610.2807724394952,-78.50791727092701,-1973.363179890206,9.588944669255397,1,2,8
