,time,ch1,ch2,ch3,ch4,ch5,ch6,tag,ID,Repeticion
992,0,-221.8447480039904,-585.1572416690055,-307.63167220247124,-319.4387163173651,-309.0855788423214,207.49028359297017,3,2,1
993,3,-388.9463105039904,-471.02931198150554,-627.8426097024712,-378.0224565517401,-2167.3824538423214,43.58501015547017,3,2,1
994,7,47.53806449600961,67.40196243255696,-602.2498362649712,153.1667524326349,-403.7574538423214,-235.70014609452983,3,2,1
995,11,412.3388457460096,281.26329055755696,-350.95003157747124,494.0529829013849,2419.4612961576786,-272.8935054695298,3,2,1
996,16,-104.11818550399039,-485.51319870025554,-250.85823470247124,-214.7653764736151,377.5706711576786,184.35600624922017,3,2,1
997,19,-422.0947480039904,-541.8842924502555,-544.0906565774712,-428.3810991298651,-2170.8043288423214,144.68168984297017,3,2,1
998,23,-45.64552925399039,-39.79701217681804,-607.3465159524712,58.283451651384894,-905.5387038423214,-153.08808554765483,3,2,1
999,27,379.2841582460096,321.49644485443196,-366.03694563997124,529.7487836826349,2139.7112961576786,-266.4113277351548,3,2,1
1000,31,20.08884574600961,-351.02284225494304,-202.89143782747124,-34.208003426740106,1066.0706711576786,109.96977578047017,3,2,1
1001,35,-424.9111542539904,-591.236953583068,-510.27327376497124,-495.4138139736151,-2057.7418288423214,177.00249062422017,3,2,1
1002,33,-124.21193550399039,-133.65199264556804,-620.4666331399712,-63.376948739240106,-1349.8199538423214,-124.16498984452983,3,2,1
1003,37,345.7099394960096,329.14073196380696,-426.02913313997124,511.7109418857599,1710.6175461576786,-334.5172847664048,3,2,1
1004,41,131.3583769960096,-217.91810592681804,-212.41389876497124,116.7556196201349,1686.5550461576786,21.568408592970172,3,2,1
1005,45,-412.2822480039904,-635.560439911193,-474.48811751497124,-532.8083452236151,-1792.9137038423214,229.86430703047017,3,2,1
1006,49,-210.9814667539904,-229.09388717681804,-633.4305003274712,-144.3798784267401,-1670.3668288423214,-87.97748984452983,3,2,1
1007,53,278.3193144960096,291.65684524505696,-485.55159407747124,418.1018110263849,1164.8206711576786,-298.9555171882798,3,2,1
1008,57,243.6982207460096,-47.95545944244304,-238.00667220247124,247.1333051670099,2146.3206711576786,-40.32343711015483,3,2,1
1009,61,-366.5517792539904,-653.4419096377555,-411.03108626497124,-505.8969682704901,-1363.4918288423214,249.35502968672017,3,2,1
1010,65,-274.8642792539904,-308.66615280181804,-639.6892893899712,-217.9616655361151,-1934.6324538423214,-21.346874610154828,3,2,1
1011,69,202.6825957460096,232.91661087005696,-512.3738597024712,373.2419477451349,588.5862961576786,-277.1625484382798,3,2,1
1012,67,312.9872832460096,77.41539016693196,-258.14534407747124,407.4177289951349,2444.7894211576786,-141.57685507890483,3,2,1
1013,71,-296.2080292539904,-631.358291473693,-359.86800032747124,-430.4821733486151,-803.9449538423214,222.44340859297017,3,2,1
1014,75,-339.9502167539904,-387.43373092681804,-625.0486643899712,-336.4706987392401,-2120.2887038423214,14.326465233595172,3,2,1
1015,79,130.9560332460096,153.18785110443196,-570.1306956399712,238.3491254795099,3.2894211576785892,-263.1034664070298,3,2,1
1016,83,364.9560332460096,203.59117141693196,-302.96077376497124,465.4875532138849,2504.1331711576786,-219.91987265702983,3,2,1
1017,87,-229.3095917539904,-585.202041473693,-298.69124251497124,-317.1364702236151,-162.0855788423214,187.66411171797017,3,2,1
1018,91,-396.1884980039904,-488.15077194244304,-587.6990550149712,-388.9973100673651,-2202.2262038423214,62.87456093672017,3,2,1
1019,95,41.86228324600961,64.87608352630696,-557.3680003274712,133.1840864170099,-537.6324538423214,-166.11909140702983,3,2,1
1020,99,405.0302519960096,302.76573196380696,-329.33577376497124,531.0451704013849,2372.6800461576786,-230.20161093827983,3,2,1
1021,103,-94.14943550399039,-469.79994186431804,-233.28987532747124,-160.2495073329901,551.9300461576786,170.56499062422017,3,2,1
1022,95,-427.8408417539904,-558.7822416690055,-559.4021800149712,-464.1437944423651,-2165.5855788423214,146.08989296797017,3,2,1
1023,99,-55.92677925399039,-49.74354537994304,-612.2859690774712,17.849125479509894,-1013.6012038423214,-154.69746054765483,3,2,1
1024,103,376.7333769960096,334.75108352630696,-376.60921126497124,528.0278364170099,2050.4769211576786,-302.4647945320298,3,2,1
1025,107,29.96775199600961,-342.05970748931804,-226.78596907747124,-15.454829598615106,1200.1487961576786,82.05229531172017,3,2,1
1026,111,-425.1338105039904,-599.842422333068,-503.67854720247124,-531.9589799892401,-2016.4449538423214,179.95268593672017,3,2,1
1027,115,-138.6963105039904,-136.87074264556804,-608.1062815774712,-69.9038042079901,-1407.9762038423214,-119.62763632890483,3,2,1
1028,119,342.6240019960096,339.22154251068196,-435.77425032747124,479.8149457920099,1589.4144211576786,-300.4308589851548,3,2,1
1029,123,141.9286894960096,-186.67030319244304,-213.82112532747124,169.0363813388849,1801.0550461576786,4.156543358595172,3,2,1
1030,127,-413.7353730039904,-655.4311674502555,-452.69514876497124,-491.1000932704901,-1689.0074538423214,221.50493203047017,3,2,1
1031,131,-220.0556855039904,-242.54969772369304,-635.1072581399712,-175.0685991298651,-1743.8668288423214,-60.79780234452983,3,2,1
1032,170,268.5068144960096,289.37706008880696,-495.74397688997124,405.6296430576349,1037.5081711576786,-293.2558101570298,3,2,1
1033,174,257.9365019960096,-20.395889129943043,-264.60432845247124,287.8359418857599,2230.7737961576786,-72.64423789140483,3,2,1
1034,178,-367.2197480039904,-657.711074676818,-389.79671126497124,-487.2556108486151,-1246.7730788423214,238.04497109297017,3,2,1
1035,182,-306.2236542539904,-337.79042037994304,-607.7937815774712,-259.7817338954901,-1989.4137038423214,-27.426464453904828,3,2,1
1036,186,186.2060332460096,218.36558547943196,-512.0613597024712,326.0798383701349,450.4612961576786,-268.2890132820298,3,2,1
1037,190,330.1318144960096,117.60386672943196,-269.54475813997124,438.9560590732599,2474.2112961576786,-159.77119101640483,3,2,1
1038,194,-287.1142792539904,-631.872451629943,-341.71858626497124,-392.8640092861151,-671.0387038423214,226.53374062422017,3,2,1
1039,198,-353.1377167539904,-411.30543502838077,-609.6258128274712,-361.8845170986151,-2164.1793288423214,47.51884804609517,3,2,1
1040,202,76.05759574600961,101.55528274505696,-567.2469065774712,203.5698286045099,-128.6324538423214,-257.7611812507798,3,2,1
1041,206,379.4833769960096,239.06333938568196,-295.33870345247124,511.8227582920099,2485.0862961576786,-219.49506796952983,3,2,1
1042,211,-164.2236542539904,-530.7978666690055,-263.08479720247124,-283.4746049892401,-17.14807884232141,212.34038124922017,3,2,1
1043,215,-391.7861542539904,-485.40150436431804,-583.0056956399712,-424.2683061611151,-2226.8980788423214,99.30766640547017,3,2,1
1044,219,8.80368949600961,30.365097198181957,-586.4471018899712,77.3049360263849,-660.6480788423214,-178.21137656327983,3,2,1
1045,223,399.9794707460096,319.08262649505696,-343.77425032747124,521.0539594638849,2306.1019211576786,-246.98774375077983,3,2,1
1046,227,-60.89162300399039,-436.76405319244304,-260.31331282747124,-96.5024370204901,702.0862961576786,134.80229531172017,3,2,1
1047,231,-428.1963105039904,-567.655898895568,-548.9861643899712,-488.8872026454901,-2146.4762038423214,141.91020546797017,3,2,1
1048,235,-84.91896675399039,-84.90296920806804,-604.8211253274712,-17.868892098615106,-1129.9293288423214,-147.18720664140483,3,2,1
1049,239,373.9833769960096,338.17100540130696,-390.28889876497124,537.5720258701349,1950.2737961576786,-289.4337886726548,3,2,1
1050,243,76.66306449600961,-291.85780319244304,-218.06819563997124,31.863773917009894,1338.6644211576786,78.83354531172017,3,2,1
1051,247,-421.8252167539904,-606.525527801818,-499.20882063997124,-502.0078081142401,-1967.8043288423214,184.98198281172017,3,2,1
1052,236,-173.9463105039904,-177.84144577056804,-640.9637034524712,-102.0903276454901,-1493.8824538423214,-110.50800742265483,3,2,1
1053,240,327.6708769960096,332.71714797943196,-457.63460188997124,463.4982954013849,1462.5706711576786,-301.4367183601548,3,2,1
1054,244,182.8115019960096,-144.15736373931804,-213.19612532747124,187.8342329013849,1906.1644211576786,-19.089306250779828,3,2,1
1055,248,-392.7236542539904,-639.404922333068,-441.11604720247124,-497.6267045986151,-1608.3355788423214,210.75346718672017,3,2,1
1056,252,-252.1338105039904,-265.28138717681804,-629.7430003274712,-203.5224565517401,-1827.4137038423214,-48.70551718827983,3,2,1
1057,256,241.5732207460096,267.42759719818196,-488.86018782747124,396.6218305576349,896.5706711576786,-284.7621578132798,3,2,1
1058,260,282.5888457460096,12.930771026306957,-227.85823470247124,332.2041059482599,2295.7894211576786,-88.40205039140483,3,2,1
1059,264,-327.9267792539904,-632.610000458068,-377.43635970247124,-457.8405717861151,-1140.5855788423214,238.73784218672017,3,2,1
1060,268,-297.8877167539904,-337.96937545806804,-629.8992503274712,-284.9721635829901,-2049.1637038423214,13.588916405470172,3,2,1
1061,272,141.4365019960096,186.33555618255696,-534.7029612649712,301.0009809482599,308.4612961576786,-261.1588863289048,3,2,1
1062,275,358.0497832460096,158.19468704193196,-242.38753157747124,437.5925336826349,2481.9456711576786,-171.57294882890483,3,2,1
1063,279,-248.1533417539904,-600.647109833068,-297.90901595247124,-379.3413042079901,-539.7105788423214,218.42045937422017,3,2,1
1064,283,-360.5361542539904,-427.33168014556804,-605.3123362649712,-384.7280229579901,-2175.0855788423214,63.43315468672017,3,2,1
1065,287,87.16697074600961,113.17832962005696,-570.1082347024712,171.3610883701349,-250.4918288423214,-206.57587851640483,3,2,1
1066,291,387.1708769960096,255.11192337005696,-329.64827376497124,487.1240278232599,2447.4925461576786,-250.56415976640483,3,2,1
1067,295,-150.8134980039904,-521.6560209658808,-255.77620345247124,-274.3105424892401,139.3675461576786,191.12895546797017,3,2,1
1068,299,-397.8642792539904,-493.51515182525554,-563.6707347024712,-423.5529741298651,-2207.9762038423214,127.87358437422017,3,2,1
1069,303,-11.78224800399039,13.556503448181957,-593.7566722024712,122.0529829013849,-759.1949538423214,-186.79462851640483,3,2,1
1070,307,403.1318144960096,329.61021438568196,-373.43538313997124,542.5339399326349,2248.2737961576786,-274.8603023445298,3,2,1
1071,311,-26.53615425399039,-400.62135299713054,-238.49788313997124,-106.4936479579901,844.6800461576786,130.82377968672017,3,2,1
1072,313,-419.8603730039904,-560.3244779971305,-519.4597972024712,-485.7580522548651,-2121.6324538423214,167.77104531172017,3,2,1
1073,317,-88.51662300399039,-85.37220748931804,-609.5369456399712,-28.284907723615106,-1226.7887038423214,-131.87617148515483,3,2,1
1074,321,369.8740019960096,349.16807571380696,-389.19319563997124,513.4321332920099,1849.3831711576786,-300.6767085945298,3,2,1
1075,325,79.27634574600961,-270.75770553619304,-208.90413313997124,71.2475629795099,1477.3362961576786,44.14360390547017,3,2,1
1076,329,-422.7002167539904,-621.925918426818,-480.41096907747124,-505.3828081142401,-1897.8199538423214,194.57084999922017,3,2,1
1077,333,-180.6494355039904,-182.82582077056804,-635.8445628274712,-128.1748003017401,-1576.2418288423214,-98.72871054765483,3,2,1
1078,337,297.2529082460096,316.55674758880696,-453.29866438997124,454.9152875888849,1341.8206711576786,-296.4298824226548,3,2,1
1079,341,196.9130644960096,-109.66859420806804,-238.58772688997124,213.9633832920099,2005.8050461576786,-30.645214453904828,3,2,1
1080,345,-376.3642792539904,-641.4836576846305,-416.28401595247124,-510.3896440517401,-1525.8824538423214,238.35795937422017,3,2,1
1081,349,-235.1884980039904,-264.76747116119304,-637.4539378274712,-229.7412065517401,-1881.1480788423214,-18.441112891404828,3,2,1
1082,341,237.8193144960096,267.36070266693196,-510.36214095247124,370.7832075107599,764.2112961576786,-266.6349605476548,3,2,1
1083,345,302.1005644960096,50.66050735443196,-214.64827376497124,369.3303266513849,2356.9769211576786,-101.52265586015483,3,2,1
1084,349,-319.6572480039904,-637.460342254943,-342.32210188997124,-444.0942338954901,-1025.9449538423214,237.86626015547017,3,2,1
1085,353,-309.9345917539904,-348.98866256744304,-629.6756175149712,-306.2734331142401,-2084.8512038423214,22.820117577345172,3,2,1
1086,357,152.2997832460096,185.50840774505696,-546.5496409524712,237.7233930576349,175.4144211576786,-257.2472652351548,3,2,1
1087,361,367.4130644960096,185.26255813568196,-272.11507063997124,447.9414106357599,2476.0862961576786,-195.82465781327983,3,2,1
1088,365,-236.0400605039904,-587.7277983096305,-306.20100813997124,-343.9138139736151,-386.5074538423214,221.79545937422017,3,2,1
1089,369,-358.0791230039904,-430.30445846588077,-593.8680003274712,-351.5356401454901,-2202.9918288423214,75.23491249922017,3,2,1
1090,373,68.19040824600961,93.64292922943196,-569.6609690774712,172.7243696201349,-382.7574538423214,-224.12202109452983,3,2,1
1091,377,409.2099394960096,289.86875930755696,-327.63655501497124,504.3349653232599,2432.6331711576786,-232.68256796952983,3,2,1
1092,381,-115.31740425399039,-487.52491745025554,-249.65120345247124,-205.1093706142401,314.2737961576786,190.94975624922017,3,2,1
1093,385,-417.8486542539904,-516.8056791690055,-566.6443675149712,-454.9348100673651,-2197.6168288423214,136.67973671797017,3,2,1
1094,389,-19.65334175399039,-6.403457489318043,-580.4353831399712,71.0686079013849,-873.7105788423214,-182.79365195390483,3,2,1
1095,393,404.7841582460096,352.07359329193196,-372.22835188997124,527.6701704013849,2162.3987961576786,-274.9049800789048,3,2,1
1096,397,-9.66115425399039,-378.06837448150554,-252.02034407747124,-70.7753862392401,998.8362961576786,135.56254921797017,3,2,1
1097,401,-440.2002167539904,-604.044570770568,-512.9998362649712,-524.1135210048651,-2082.1793288423214,172.57670937422017,3,2,1
1098,405,-114.98146675399039,-108.77455123931804,-606.1619456399712,-44.311030770490106,-1314.7887038423214,-127.76362265702983,3,2,1
1099,409,388.8505644960096,376.66050735443196,-391.78596907747124,519.2658735263849,1741.7112961576786,-286.8185542976548,3,2,1
1100,413,133.8388457460096,-209.67030319244304,-197.16975813997124,99.9470258701349,1603.3519211576786,44.38969765547017,3,2,1
1101,417,-400.9502167539904,-614.6616362002555,-466.06135970247124,-510.3225053798651,-1832.8043288423214,202.72954140547017,3,2,1
1102,423,-184.3408417539904,-187.72084030181804,-625.3846018899712,-142.9938920986151,-1664.0699538423214,-70.67719687577983,3,2,1
1103,427,309.9911894960096,328.64903274505696,-473.77229720247124,439.2243696201349,1208.5550461576786,-292.6747554695298,3,2,1
1104,431,241.6161894960096,-58.70668014556804,-211.20686751497124,250.2402387607599,2095.4144211576786,-62.09418906327983,3,2,1
1105,435,-379.3564667539904,-650.6479643252555,-406.58284407747124,-518.6374467861151,-1426.5699538423214,229.75249062422017,3,2,1
1106,439,-258.6572480039904,-283.36415084869304,-641.4549143899712,-241.1181596767401,-1952.7887038423214,-12.026317969529828,3,2,1
1107,443,222.2841582460096,259.89512649505696,-513.6258128274712,375.2536664951349,630.6956711576786,-264.7575191414048,3,2,1
1108,447,312.3818144960096,79.71763626068196,-236.32991438997124,364.6142621982599,2404.1956711576786,-111.80439414140483,3,2,1
1109,451,-302.1767792539904,-626.3962553408805,-330.05061751497124,-422.5920366298651,-898.0230788423214,237.03911171797017,3,2,1
1110,455,-321.0205292539904,-365.43959030181804,-612.6883128274712,-313.4706987392401,-2122.3668288423214,19.310840233595172,3,2,1
1111,459,142.3974394960096,180.25572219818196,-545.7000315774712,238.7067914951349,45.14879615767859,-226.20063437577983,3,2,1
1112,449,381.8075957460096,208.50840774505696,-254.97151595247124,492.6672407138849,2488.2269211576786,-189.09663046952983,3,2,1
1113,453,-213.8877167539904,-577.535293426818,-286.15218001497124,-332.0002397548651,-261.8980788423214,214.73198281172017,3,2,1
1114,457,-402.1338105039904,-469.19642623931804,-618.7908518899712,-396.0380815517401,-2217.7887038423214,84.51103554609517,3,2,1
1115,461,42.37400199600961,65.05503860443196,-589.2410472024712,138.3920942295099,-500.0543288423214,-194.25996054765483,3,2,1
1116,465,406.9755644960096,300.77647415130696,-316.41585188997124,514.9519086826349,2355.6956711576786,-238.53876914140483,3,2,1
1117,469,-90.37209175399039,-462.37916549713054,-236.57600813997124,-180.6789506923651,391.3831711576786,177.80717812422017,3,2,1
1118,473,-403.4970917539904,-518.5490873721305,-552.7635081399712,-460.5898393642401,-2238.1168288423214,144.83842812422017,3,2,1
1119,477,-36.99709175399039,-21.535781708068043,-594.0916331399712,32.087162588884894,-1012.6480788423214,-150.02582968827983,3,2,1
1120,481,397.9911894960096,348.29624954193196,-370.77522688997124,531.2016645420099,2063.2894211576786,-284.6503414070298,3,2,1
1121,485,40.07322074600961,-331.64369186431804,-225.60139876497124,-32.039790536115106,1118.2581711576786,104.96293984297017,3,2,1
1122,487,-418.1845917539904,-581.290420379943,-511.99397688997124,-510.7473100673651,-2064.2730788423214,190.21245156172017,3,2,1
1123,491,-133.6689667539904,-130.09803756744304,-633.2078440774712,-76.3857378017401,-1418.7105788423214,-110.12812461015483,3,2,1
1124,495,354.5849394960096,348.47496047943196,-434.25471907747124,466.1357465732599,1609.2425461576786,-283.7116207039048,3,2,1
1125,499,159.0497832460096,-180.83656295806804,-198.86800032747124,165.2812543857599,1726.7425461576786,12.515918358595172,3,2,1
1126,503,-405.8213105039904,-625.681045379943,-447.17366438997124,-505.1816362392401,-1776.8980788423214,213.92778359297017,3,2,1
1127,507,-215.8564667539904,-221.02503952056804,-641.2537425149712,-178.6672319423651,-1754.8980788423214,-62.67524375077983,3,2,1
1128,511,280.0615019960096,305.71617141693196,-481.10335188997124,432.2504926670099,1076.3519211576786,-284.3598140632798,3,2,1
1129,515,259.1200957460096,-30.677627411193043,-217.68831282747124,291.5910688388849,2190.3206711576786,-60.39545859452983,3,2,1
1130,519,-360.4697480039904,-642.020156708068,-391.60725813997124,-485.5568803798651,-1342.6012038423214,243.70024453047017,3,2,1
1131,523,-273.7900605039904,-299.50209030181804,-616.1531565774712,-255.2221635829901,-2006.8980788423214,-5.186474219529828,3,2,1
1132,534,208.7372832460096,242.75132766693196,-506.91975813997124,335.8474164951349,506.1175461576786,-265.2267574226548,3,2,1
1133,538,347.2060332460096,126.43272415130696,-240.08479720247124,417.4982954013849,2467.8519211576786,-152.01508750077983,3,2,1
1134,542,-277.9697480039904,-608.671279754943,-323.50178938997124,-403.2800249111151,-732.4137038423214,236.07817421797017,3,2,1
1135,546,-339.7275605039904,-390.16065963775554,-611.3699534524712,-339.3317827236151,-2149.2262038423214,49.12822304609517,3,2,1
1136,550,114.63572074600961,147.86827102630696,-549.7234690774712,225.6086469638849,-66.74182884232141,-238.09174765702983,3,2,1
1137,554,384.4013457460096,235.37535110443196,-297.35042220247124,496.7575727451349,2519.9612961576786,-219.27167929765483,3,2,1
1138,558,-189.3447480039904,-553.954238739318,-295.09260970247124,-289.3979448329901,-60.08557884232141,200.22612343672017,3,2,1
1139,562,-389.0127167539904,-470.60462936431804,-589.9793284524712,-419.7980913173651,-2198.1637038423214,94.74809609297017,3,2,1
1140,566,14.16697074600961,39.17173782318196,-595.4773753274712,117.4038129795099,-607.1324538423214,-188.29218711015483,3,2,1
1141,570,401.6122832460096,309.94078079193196,-332.88948470247124,539.8071332920099,2347.4769211576786,-263.2150386726548,3,2,1
1142,564,-64.66896675399039,-437.68043502838077,-238.38655501497124,-145.8774370204901,623.0550461576786,151.25346718672017,3,2,1
1143,568,-429.9384980039904,-545.6840971377555,-571.8513987649712,-482.7629350673651,-2202.2887038423214,152.01323281172017,3,2,1
1144,572,-88.94240425399039,-64.83094772369304,-636.4705393899712,-3.116694832990106,-1113.7887038423214,-163.16865195390483,3,2,1
1145,576,364.3974394960096,334.30406204193196,-403.49885970247124,516.0695844638849,1981.9300461576786,-315.1828121101548,3,2,1
