,time,ch1,ch2,ch3,ch4,ch5,ch6,tag,ID,Repeticion
19980,0,433.0028146831319,372.1217284668942,58.50169972554977,493.95527548418795,2081.4023203592806,-267.114299233564,3,2,11
19981,3,-177.93859156686813,-517.2542480956058,43.99486378804977,-365.08940225018705,-468.76955464071943,146.571980063311,3,2,11
19982,7,-402.0362478168681,-379.8580078612308,-259.31861277445023,-427.80839639081205,-2290.3633046407194,164.698933188311,3,2,11
19983,11,45.420783433131874,215.68178706064418,-237.34595652445023,182.84126181231295,-654.5820546407194,-124.756144936689,3,2,11
19984,15,441.1395334331319,467.2508788575192,27.40990285054977,585.731642671688,1987.5585703592806,-298.540812905439,3,2,11
19985,20,-57.036247816868126,-407.0601562987308,80.42845753804977,-253.30815225018705,161.69919535928057,114.474812094561,3,2,11
19986,23,-426.3096853168681,-459.2959961424808,-233.88208933695023,-497.16581826581205,-2287.5351796407194,207.770710532061,3,2,11
19987,27,-45.883904066868126,112.84145502939418,-280.86548777445023,86.05830282793795,-1102.8476796407194,-72.967082436689,3,2,11
19988,31,430.4989084331319,531.2215819825192,-36.51587839945023,581.216505952938,1703.0116953592806,-313.136516030439,3,2,11
19989,35,67.23718968313187,-267.5628418456058,113.48607472554977,-81.84794717206205,764.5585703592806,25.581745688311003,3,2,11
19990,28,-422.0635915668681,-523.6915039549808,-210.92701121195023,-554.520310453312,-2167.7226796407194,227.775593344561,3,2,11
19991,32,-128.78624781686813,5.955468701269183,-300.33326121195023,-33.61283975018705,-1505.0664296407194,-21.245158608563997,3,2,11
19992,36,376.0262521831319,512.2672362793942,-62.89087839945023,564.385451265438,1335.2148203592806,-310.476603921064,3,2,11
19993,40,172.15515843313187,-105.75864262685582,124.81908253804977,88.02534384356295,1334.1679453592806,-67.759074624189,3,2,11
19994,44,-425.0831228168681,-594.0101074706058,-139.22193308695023,-592.227829984562,-1906.7695546407194,240.002155844561,3,2,11
19995,48,-224.05187281686813,-111.72641606435582,-304.15552683695023,-174.11601357831205,-1820.6289296407194,47.553425375811,3,2,11
19996,52,323.7020334331319,498.2972655762692,-117.09400339945023,518.028029390438,848.2773203592806,-273.104533608564,3,2,11
19997,56,294.8660959331319,78.71035151376918,122.22630910054977,279.26679892168795,1755.6679453592806,-144.269084389814,3,2,11
19998,60,-364.2862478168681,-598.0333008299808,-78.82740183695023,-559.840134672062,-1504.8008046407194,241.589069907061,3,2,11
19999,64,-297.4542165668681,-206.14023442373082,-321.70240183695023,-238.86894326581205,-2048.4101796407194,73.950886313311,3,2,11
20000,65,224.79578343313187,408.4657226075192,-182.02564402445023,417.78047079668795,310.74607035928057,-250.194133217939,3,2,11
20001,69,373.8817209331319,240.20180659189418,101.21556691304977,403.76606649981295,2001.9960703592806,-214.699504311689,3,2,11
20002,73,-285.4932790668681,-580.7330078612308,-14.45435496195023,-490.32621865643705,-1024.3164296407194,220.913776938311,3,2,11
20003,77,-364.2628103168681,-304.8455566893558,-296.31080027445023,-344.39164834393705,-2222.2226796407194,123.169636313311,3,2,11
20004,81,133.82312718313187,313.0238280762692,-213.29615183695023,278.75263876543795,-209.16017964071943,-189.397258217939,3,2,11
20005,85,426.0731271831319,381.0848632325192,63.03880910054977,523.727736421688,2081.3554453592806,-265.214396889814,3,2,11
20006,89,-180.66515406686813,-514.8848633299808,35.05443410054977,-409.85991006268705,-433.56642964071943,175.204304282061,3,2,11
20007,93,-407.6924978168681,-394.8782715331058,-278.29517527445023,-417.10185342206205,-2301.6758046407194,169.169148032061,3,2,11
20008,97,32.100470933131874,199.45449213876918,-251.02564402445023,199.94038290606295,-704.5820546407194,-134.993205483564,3,2,11
20009,101,436.8231271831319,473.4422851075192,14.53490285054977,570.666701265438,1964.9335703592806,-301.111369546064,3,2,11
20010,92,-56.926872816868126,-402.6121582518558,79.24388722554977,-231.64946084393705,211.51169535928057,102.471882407061,3,2,11
20011,96,-429.8878103168681,-476.8645996581058,-251.87525339945023,-508.20756631268705,-2281.8164296407194,202.853230063311,3,2,11
20012,100,-61.462029066868126,93.95424799814418,-282.76490183695023,69.62983603106295,-1155.4570546407194,-77.839641030439,3,2,11
20013,104,412.9754709331319,511.5072265137692,-35.06275339945023,578.869337984188,1683.9335703592806,-319.730266030439,3,2,11
20014,108,70.85828343313187,-255.04575200185582,87.69310597554977,-58.60209756268705,813.1679453592806,15.679890219561003,3,2,11
20015,112,-446.5167165668681,-541.7515625487308,-212.13404246195023,-553.983933500187,-2149.4258046407194,227.105183188311,3,2,11
20016,116,-154.71593531686813,-31.997900439355817,-288.91236277445023,-30.19316201581205,-1528.9414296407194,-18.182902749188997,3,2,11
20017,120,362.1004709331319,502.8348632325192,-67.36158152445023,550.393263765438,1289.8710703592806,-303.435832436689,3,2,11
20018,124,191.64734593313187,-90.71591801748082,137.11205128804977,101.65986532793795,1370.6679453592806,-65.300334389814,3,2,11
20019,128,-412.2745290668681,-588.2879395018558,-128.60474558695023,-570.010056547062,-1892.0195546407194,240.806843344561,3,2,11
20020,134,-241.12609156686813,-123.97519536123082,-313.05201121195023,-148.88090615643705,-1839.4883046407194,30.924030844561003,3,2,11
20021,138,292.3192209331319,470.5587401856442,-139.08814402445023,470.79902548418795,783.7304453592806,-271.271769936689,3,2,11
20022,142,296.8582834331319,89.59560542001918,117.53197316304977,294.89057821856295,1781.9335703592806,-133.652141030439,3,2,11
20023,146,-366.3878103168681,-609.1421875487308,-68.27759714945023,-571.619431547062,-1493.1758046407194,253.793171469561,3,2,11
20024,150,-307.2667165668681,-215.57260747060582,-308.80494089945023,-265.46757607831205,-2103.8008046407194,100.728230063311,3,2,11
20025,154,206.31140843313187,388.3937011231442,-189.29029246195023,421.62495321856295,258.76169535928057,-231.239787514814,3,2,11
20026,158,371.5340646831319,241.36416010751918,89.25755910054977,439.57343954668795,2048.0429453592806,-226.702433999189,3,2,11
20027,162,-287.3956228168681,-587.4163574706058,-14.83521433695023,-481.09477334393705,-969.1289296407194,205.424030844561,3,2,11
20028,166,-370.6339040668681,-310.8804687987308,-296.66822214945023,-330.89116006268705,-2258.3633046407194,134.144245688311,3,2,11
20029,170,111.31531468313187,298.2716308106442,-224.27076121195023,300.09858603106295,-264.53517964071943,-173.594523842939,3,2,11
20030,164,418.3817209331319,383.2081542481442,44.28587941304977,526.655959077938,2090.6210703592806,-279.161906655439,3,2,11
20031,168,-170.09484156686813,-511.6661133299808,37.53490285054977,-360.59648232831205,-365.75392964071943,150.952839438311,3,2,11
20032,172,-421.8174978168681,-414.3467773924808,-275.65747996195023,-431.76445107831205,-2313.9101796407194,176.321980063311,3,2,11
20033,176,0.2723459331318736,167.20107417001918,-274.13697214945023,151.68305868731295,-748.8789296407194,-127.169963296064,3,2,11
20034,180,433.1121896831319,476.3480468262692,0.05150441304976994,542.838576265438,1946.2929453592806,-300.485392983564,3,2,11
20035,184,-37.926872816868126,-377.9581055174808,90.06224660054977,-204.73783975018705,254.13669535928057,112.664265219561,3,2,11
20036,188,-438.6495290668681,-477.3338379393558,-247.89673777445023,-515.225876859562,-2293.3008046407194,222.701862875811,3,2,11
20037,192,-78.94249781686813,71.15541987314418,-278.98755808695023,37.44331259356295,-1204.7851796407194,-46.457805092939,3,2,11
20038,196,407.2059396831319,509.2496581543942,-31.53150339945023,614.945509859188,1660.2148203592806,-315.237590249189,3,2,11
20039,200,79.35047093313187,-240.85239262685582,120.59447316304977,-36.42924600018705,893.9335703592806,7.499226157061003,3,2,11
20040,262,-450.9424978168681,-553.9109863768558,-175.02955027445023,-568.065476468937,-2135.0508046407194,246.640339438311,3,2,11
20041,266,-172.50890406686813,-32.75766606435582,-293.91822214945023,-41.34672646893705,-1596.8789296407194,1.8888745945610026,3,2,11
20042,270,351.1707834331319,504.5782714356442,-86.91919871195023,560.474318452938,1232.8710703592806,-296.328166421064,3,2,11
20043,274,190.03797093313187,-79.85288090810582,121.39916066304977,145.44697470293795,1426.1054453592806,-73.346965249189,3,2,11
20044,278,-425.9542165668681,-603.8448242674808,-138.21607371195023,-574.927537015812,-1848.1914296407194,253.167194907061,3,2,11
20045,282,-260.4854665668681,-149.97031254873082,-328.96607371195023,-163.36479287518705,-1872.9570546407194,42.882038657061,3,2,11
20046,286,269.2957834331319,454.1080565918942,-143.98365183695023,490.46845907793795,743.0898203592806,-278.044230874189,3,2,11
20047,290,301.6629709331319,103.67739252939418,112.74877003804977,308.45820517168795,1810.9804453592806,-155.199260171064,3,2,11
20048,294,-357.8018728168681,-603.3531250487308,-62.04126902445023,-550.452195218937,-1446.3476796407194,253.860066000811,3,2,11
20049,298,-326.7120290668681,-236.20322270498082,-317.43287058695023,-257.80082803143705,-2102.2383046407194,94.000691000811,3,2,11
20050,290,186.06140843313187,369.6183104981442,-195.70533152445023,383.85053915606295,211.48044535928057,-232.782023842939,3,2,11
20051,294,366.3504709331319,252.42812495126918,82.21654347554977,420.06050009356295,2027.5116953592806,-212.553752358564,3,2,11
20052,298,-280.5089040668681,-573.0887207518558,-5.20142527445023,-469.71782021893705,-937.4883046407194,220.936237875811,3,2,11
20053,302,-384.2901540668681,-327.7112793456058,-302.94849558695023,-348.03495889081205,-2258.9883046407194,144.425983969561,3,2,11
20054,306,93.32312718313187,271.5389647950192,-235.20044871195023,251.55073446856295,-317.33205464071943,-165.145549233564,3,2,11
20055,310,414.4051584331319,384.1468749512692,42.05052785054977,510.69697470293795,2060.8866953592806,-264.812053139814,3,2,11
20056,314,-169.57921656686813,-505.8323730956058,40.10619191304977,-322.21855264081205,-312.22267964071943,158.283894125811,3,2,11
20057,318,-427.0714040668681,-418.6829590331058,-283.45826121195023,-443.45439248456205,-2332.4414296407194,181.194538657061,3,2,11
20058,322,-5.161247816868126,166.93276362314418,-273.19849558695023,146.54218954668795,-813.2070546407194,-121.559855874189,3,2,11
20059,326,409.2645334331319,462.8250976075192,-4.21802683695023,596.237013765438,1936.9335703592806,-306.877971108564,3,2,11
20060,338,-53.372185316868126,-397.2029785643558,88.60912160054977,-184.39775185956205,327.77732035928057,97.040241782061,3,2,11
20061,342,-456.8878103168681,-510.7720703612308,-237.50318308695023,-519.763474515812,-2274.7851796407194,229.429890219561,3,2,11
20062,346,-93.46984156686813,57.11855463876918,-298.05396433695023,52.73188681231295,-1250.6758046407194,-48.402385171064,3,2,11
20063,350,385.5731271831319,503.9969726075192,-59.87330027445023,585.083205171688,1606.5273203592806,-309.090861733564,3,2,11
20064,354,64.31140843313187,-247.02158207998082,99.04759816304977,-27.89091592206205,924.0116953592806,9.130817953936003,3,2,11
20065,358,-451.8799978168681,-571.5464844237308,-192.88892527445023,-562.231736234562,-2116.7851796407194,242.751179282061,3,2,11
20066,362,-193.38390406686813,-59.17758793935582,-331.17896433695023,-61.70903115643705,-1602.3320546407194,-2.4473070460639974,3,2,11
20067,366,331.1903146831319,489.8707519043942,-106.87915964945023,550.438185640438,1162.4804453592806,-286.426310952314,3,2,11
20068,370,189.72547093313187,-78.62363286123082,109.23998097554977,157.71797079668795,1430.3398203592806,-73.346965249189,3,2,11
20069,374,-428.1456228168681,-608.8963379393558,-131.82349558695023,-569.518357328312,-1830.6601796407194,253.122761313311,3,2,11
20070,370,-269.4229665668681,-154.57480473623082,-317.52173777445023,-156.63700967206205,-1901.2070546407194,47.196003500811,3,2,11
20071,374,260.2020334331319,441.8814940918942,-155.87427683695023,465.65791220293795,680.7148203592806,-260.341838296064,3,2,11
20072,378,288.9012521831319,99.98916010751918,99.33763722554977,289.12397665606295,1822.0585703592806,-163.916301186689,3,2,11
20073,382,-366.8096853168681,-619.9156250487308,-73.57544871195023,-532.705124906437,-1406.5976796407194,232.022663657061,3,2,11
20074,386,-334.1534353168681,-242.43955082998082,-338.77857371195023,-254.96220498456205,-2141.6445546407194,111.434773032061,3,2,11
20075,390,182.10437718313187,373.4181151856442,-215.30787058695023,338.02949423418795,134.21482035928057,-194.404094155439,3,2,11
20076,394,354.9481271831319,256.6302733887692,79.53392628804977,461.70161337481295,2051.3398203592806,-226.523478921064,3,2,11
20077,398,-287.3292165668681,-593.2947754393558,-20.13208933695023,-438.51469521893705,-861.8008046407194,200.081745688311,3,2,11
20078,402,-386.6378103168681,-336.0262207518558,-316.18091746195023,-351.45463662518705,-2277.2695546407194,153.590046469561,3,2,11
20079,406,71.75281468313187,256.8539062012692,-237.77076121195023,274.05879110918795,-370.62892964071943,-156.428508217939,3,2,11
20080,400,394.5106271831319,379.7884765137692,44.28587941304977,535.529494234188,2060.7304453592806,-272.501017983564,3,2,11
20081,404,-183.57140406686813,-511.9344238768558,37.15502003804977,-350.80644326581205,-262.53517964071943,159.625202719561,3,2,11
20082,408,-449.8253103168681,-441.5711426268558,-295.90845652445023,-450.47294717206205,-2334.9101796407194,178.646687094561,3,2,11
20083,412,-19.622185316868126,144.46914057626918,-280.52955027445023,162.83662314043795,-840.8633046407194,-129.181682046064,3,2,11
20084,416,409.4871896831319,467.7425780762692,-14.85669871195023,570.889845796688,1892.5741953592806,-293.958781655439,3,2,11
20085,420,-42.911247816868126,-377.8687500487308,77.52220753804977,-186.18583779706205,352.18357035928057,104.751667563311,3,2,11
20086,424,-475.5753103168681,-521.7691406737308,-245.68384714945023,-510.28617959393705,-2284.8789296407194,222.969929282061,3,2,11
20087,428,-112.84874781686813,44.86977534189418,-311.30787058695023,44.39472860918795,-1274.1445546407194,-55.331584389814,3,2,11
20088,432,385.3465646831319,507.8639159668942,-63.58423777445023,548.873732515438,1576.5898203592806,-301.670207436689,3,2,11
20089,436,78.34656468313187,-226.61435551748082,103.53978566304977,-2.7898417033120495,955.0429453592806,13.266071860186003,3,2,11
20090,433,-464.5089040668681,-579.5484375487308,-195.61548777445023,-542.584519437687,-2105.0664296407194,250.529499594561,3,2,11
20091,437,-202.54796656686813,-69.10166020498082,-324.33912058695023,-64.72660928143705,-1634.7226796407194,8.013386313311003,3,2,11
20092,441,332.9325021831319,491.1446776856442,-119.73169871195023,531.886427827938,1137.4335703592806,-291.120158608564,3,2,11
20093,445,205.57312718313187,-47.84506840810582,99.78490285054977,135.74629110918795,1476.7929453592806,-72.833049233564,3,2,11
20094,449,-423.2940603168681,-605.5210937987308,-152.29810496195023,-538.293015531437,-1817.3476796407194,252.854206625811,3,2,11
20095,453,-282.1417165668681,-174.87021489248082,-330.32935496195023,-143.49418740643705,-1929.7070546407194,54.460163657061,3,2,11
20096,457,247.05750218313187,431.9574218262692,-165.15064402445023,468.09443564043795,636.0585703592806,-250.708049233564,3,2,11
20097,461,307.9442209331319,123.25747065439418,78.93041066304977,321.04218954668795,1847.9179453592806,-162.128215249189,3,2,11
20098,465,-381.5167165668681,-616.6077637206058,-81.30884714945023,-525.284226468937,-1383.6914296407194,239.241901938311,3,2,11
20099,469,-360.4854665668681,-282.4268555174808,-322.50611277445023,-261.84648232831205,-2149.0664296407194,103.835163657061,3,2,11
20100,481,149.22547093313187,335.3084960450192,-206.56763621195023,370.57368368731295,98.04294535928057,-211.324260171064,3,2,11
20101,485,364.0223459331319,268.5885253418942,71.93431691304977,453.78925985918795,2033.1054453592806,-225.048381264814,3,2,11
20102,489,-286.0987478168681,-592.2666992674808,-8.42017527445023,-454.29521279706205,-865.7070546407194,216.085651938311,3,2,11
20103,493,-416.1846853168681,-365.9104980956058,-312.26978464945023,-373.78422646893705,-2336.9570546407194,158.820515219561,3,2,11
20104,497,58.276252183131874,242.97329096689418,-251.20435496195023,250.81294149981295,-456.81642964071943,-149.119426186689,3,2,11
20105,501,399.7215646831319,389.3773437012692,20.41380910054977,534.769728609188,2024.5741953592806,-274.847941811689,3,2,11
20106,505,-172.23937281686813,-506.3912109862308,24.34740285054977,-325.14677529706205,-242.48830464071943,153.568073813311,3,2,11
20107,509,-453.0674978168681,-450.9812988768558,-293.65064402445023,-448.28251748456205,-2353.2383046407194,194.717487875811,3,2,11
20108,513,-32.563591566868126,135.99794917001918,-283.45826121195023,148.91133017168795,-917.9883046407194,-94.715373452314,3,2,11
20109,517,399.2293771831319,461.9757323731442,-28.40259714945023,582.714064546688,1861.8710703592806,-303.905314858564,3,2,11
20110,508,-45.547966566868126,-379.0533203612308,67.73216847554977,-160.59306435956205,419.13669535928057,83.003620688311,3,2,11
20111,512,-472.3995290668681,-521.7244629393558,-253.81958933695023,-517.371628812687,-2286.7539296407194,233.139851157061,3,2,11
20112,516,-131.49327906686813,26.362695263769183,-319.93580027445023,37.55512899981295,-1327.0508046407194,-44.580363686689,3,2,11
20113,520,354.8153146831319,478.4266601075192,-89.33326121195023,580.724806734188,1536.6523203592806,-312.890666421064,3,2,11
20114,524,58.252814683131874,-247.80380864248082,74.57201222554977,2.6193379841879505,1018.5116953592806,-9.220012124188997,3,2,11
20115,528,-490.7940603168681,-609.4998535643558,-219.88990183695023,-575.084031156437,-2092.2070546407194,233.028523032061,3,2,11
20116,532,-245.12609156686813,-96.25913090810582,-359.00708933695023,-65.41948037518705,-1688.0820546407194,-7.565959389813997,3,2,11
20117,536,228.95203343313187,433.2538085450192,-206.67994089945023,528.131056734188,1082.6835703592806,-327.374553139814,3,2,11
20118,540,90.08093968313187,-134.56992192373082,-47.26685496195023,153.24775595293795,1522.7929453592806,-135.552043374189,3,2,11
20119,544,-482.1221853168681,-670.9446777831058,-229.59009714945023,-600.855515531437,-1769.9726796407194,231.530964438311,3,2,11
20120,553,-360.0831228168681,-228.44736332998082,-440.41236277445023,-189.67289834393705,-2002.1445546407194,14.651814047686003,3,2,11
20121,557,172.51453343313187,366.2655272950192,-277.62427683695023,446.74848837481295,566.4960703592806,-322.054973061689,3,2,11
20122,561,215.63172093313187,75.17885737314418,-4.62037058695023,331.03340048418795,1896.0898203592806,-240.940471108564,3,2,11
20123,565,-455.0792165668681,-691.0166992674808,-179.65650339945023,-548.597214750187,-1336.0820546407194,185.441608969561,3,2,11
20124,569,-359.3682790668681,-284.0584473143558,-340.29810496195023,-282.27616982831205,-2198.6758046407194,132.244343344561,3,2,11
20125,573,71.35047093313187,280.8819823731442,-330.06177683695023,328.61933798418795,17.355445359280566,-202.584758217939,3,2,11
20126,577,189.20984593313187,157.38857417001918,-171.90064402445023,412.68427939043795,2033.3241953592806,-315.215373452314,3,2,11
20127,581,-389.9659353168681,-674.1634277831058,-232.18287058695023,-486.68266396893705,-809.7851796407194,162.620319907061,3,2,11
20128,585,-570.3448415668681,-493.6731934081058,-592.5158783994502,-431.80912881268705,-2351.2383046407194,165.950886313311,3,2,11
20129,589,-41.434685316868126,135.61782221689418,-429.81763621195023,212.12226767168795,-479.50392964071943,-72.117717202314,3,2,11
20130,582,413.4871896831319,382.7835937012692,52.04173878804977,563.826857515438,2069.0741953592806,-284.503947671064,3,2,11
20131,586,-227.04406031686813,-552.0110840331058,-30.03443308695023,-323.73857217206205,-120.45705464071943,69.391316000811,3,2,11
20132,590,-637.4698415668681,-599.6204590331058,-537.6867768369502,-496.13749795331205,-2374.9883046407194,97.599323813311,3,2,11
20133,594,-123.11046656686813,37.78432612314418,-449.53150339945023,110.24287314043795,-950.0664296407194,-209.335002358564,3,2,11
