,time,ch1,ch2,ch3,ch4,ch5,ch6,tag,ID,Repeticion
11473,0,-329.453436876247,-729.9917182237086,-277.93471845371823,-283.3590884636974,-391.8839196606714,138.03835249423037,1,2,5
11474,3,-612.898749376247,-713.1832465440211,-614.8419450162182,-460.2731509636974,-2747.1964196606714,208.69216108798037,1,2,5
11475,7,-270.961249376247,-144.59962837995863,-584.0187028287182,162.1335873175526,-1276.4620446606714,-55.93015336514463,1,2,5
11476,11,139.284844373753,218.88450247941637,-324.29214032871823,585.4756283331776,1681.1629553393286,-283.47092484951963,1,2,5
11477,16,-222.320624376247,-595.7918891221461,-241.12124189121823,-113.17280916682239,278.1785803393286,74.49220991610537,1,2,5
11478,19,-617.457343126247,-788.7544135362086,-540.7687028287182,-489.7997622918224,-2666.1182946606714,248.61232710360537,1,2,5
11479,23,-334.574530626247,-251.73146431745863,-600.7833512662182,21.54105802067761,-1702.0089196606714,0.2622294473553666,1,2,5
11480,27,100.280938123753,236.47532279191637,-355.56167157871823,560.6204037238026,1320.2567053393286,-289.43869828701963,1,2,5
11481,31,-109.847968126247,-442.99538033308363,-199.12221845371823,42.93168302067761,906.8660803393286,-2.2411885213946334,1,2,5
11482,35,-614.461249376247,-838.0623969346461,-490.72280439121823,-544.7851138543224,-2481.5557946606714,293.27126265048037,1,2,5
11483,30,-417.453436876247,-345.67580025495863,-612.8302262662182,-71.37520174494739,-2082.1026696606714,53.19118452548037,1,2,5
11484,34,43.730156873753,217.69993216691637,-420.35952314121823,522.6672787238026,860.5535803393286,-271.66916703701963,1,2,5
11485,38,-6.269843126246997,-254.74904244245863,-204.97866376621823,211.7544369269276,1422.3973303393286,-90.35178422451963,1,2,5
11486,42,-565.265936876247,-861.7552680283961,-423.68960126621823,-526.7694888543224,-2113.0870446606714,271.25466108798037,1,2,5
11487,46,-476.863593126247,-442.77174752058363,-632.1427262662182,-165.1630435418224,-2317.2901696606714,91.50197554110537,1,2,5
11488,50,-25.695624376246997,134.61838919816637,-492.01967939121823,414.1272396613026,334.9285803393286,-255.48654984951963,1,2,5
11489,54,75.941094373753,-94.41994087995863,-230.68276532871823,319.6016048956776,1804.6473303393286,-223.25534867764463,1,2,5
11490,58,-503.105780626247,-839.9399604112086,-357.79702314121823,-464.8998599480724,-1598.6182946606714,275.23342085360537,1,2,5
11491,62,-536.387030626247,-530.9048041612086,-628.8116715787182,-337.4950747918224,-2583.4776696606714,191.28005171298037,1,2,5
11492,66,-105.980780626247,75.54270560441637,-516.5616715787182,311.7561459113026,-256.7276696606714,-151.01438188076963,1,2,5
11493,71,120.195000623753,62.89158255754137,-218.74721845371823,550.5622982550526,1950.8192053393286,-219.27658891201963,1,2,5
11494,75,-418.324530626247,-805.1606635362086,-282.35952314121823,-347.5978579949474,-995.7432946606714,221.56667280673037,1,2,5
11495,79,-585.156561876247,-630.3700141221461,-609.1651872037182,-346.3910708855724,-2690.1339196606714,196.59987593173037,1,2,5
11496,83,-194.293280626247,-41.66969673933363,-557.4649918912182,236.0730404425526,-787.3526696606714,-113.32932328701963,1,2,5
11497,87,144.984063123753,167.63206107316637,-270.04409345371823,554.5854916144276,1914.1473303393286,-268.45041703701963,1,2,5
11498,91,-317.519843126247,-705.9859809190211,-257.39272626621823,-254.1898990105724,-315.2745446606714,155.24904585360537,1,2,5
11499,95,-615.019843126247,-718.8382758408961,-599.5987809537182,-440.6930728386974,-2727.1339196606714,229.79225874423037,1,2,5
11500,99,-269.683905626247,-153.38380806745863,-592.2218278287182,116.08890958317761,-1275.1807946606714,-79.80173539639463,1,2,5
11501,103,145.765313123753,231.11082083879137,-327.46596845371823,555.3008236456776,1710.6785803393286,-319.43479203701963,1,2,5
11502,107,-196.750311876247,-569.1485785752711,-217.89760907871823,-131.7248111199474,361.9285803393286,88.12697554110537,1,2,5
11503,124,-627.246405626247,-786.4299506455836,-534.9571793912182,-518.1640201043224,-2634.7276696606714,273.13234663485537,1,2,5
11504,128,-357.640936876247,-264.13673775495863,-617.3233903287182,-1.3024478386973897,-1682.6964196606714,-35.29953813076963,1,2,5
11505,132,83.292656873753,225.52293021379137,-397.91811689121823,537.7322201300526,1316.9754553393286,-301.28513383389463,1,2,5
11506,136,-77.328436876247,-396.23537056745863,-174.33413251621823,102.14139981755261,978.1317053393286,-3.2248310995196334,1,2,5
11507,140,-599.039374376247,-827.9146918565211,-456.25698407871823,-511.9726138543224,-2415.5870446606714,293.62868452548037,1,2,5
11508,144,-426.148749376247,-354.72829048933363,-612.9649918912182,-86.26143221369739,-2083.7589196606714,58.68971968173037,1,2,5
11509,148,37.226250623753,207.90989310441637,-423.22085126621823,500.8743099738026,821.4285803393286,-252.06662797451963,1,2,5
11510,152,8.816094373753003,-236.37575142683363,-191.88003095371823,235.6706966925526,1497.1473303393286,-81.43357133389463,1,2,5
11511,156,-558.515936876247,-862.9174994737086,-424.51674970371823,-518.4994693230724,-2036.1339196606714,280.86598921298037,1,2,5
11512,160,-490.453436876247,-455.60170357527113,-644.4806168912182,-181.5915103386974,-2345.2120446606714,94.47487593173037,1,2,5
11513,156,-23.144843126246997,151.22581107316637,-506.65932782871823,413.1435970831776,283.6473303393286,-227.36789750576963,1,2,5
11514,160,75.558281873753,-74.99611275495863,-213.87417157871823,353.8445248175526,1833.6942053393286,-170.21457719326963,1,2,5
11515,164,-514.816718126247,-862.0905951768336,-336.56264814121823,-528.4906802605724,-1539.5870446606714,264.48220015048037,1,2,5
11516,168,-547.137030626247,-548.2049750596461,-620.0050309537182,-293.7301822136974,-2579.8057946606714,137.61354780673037,1,2,5
11517,172,-113.918280626247,48.63132865129137,-508.69350751621823,371.0552181769276,-280.4151696606714,-176.71897172451963,1,2,5
11518,176,123.370781873753,69.86545951066637,-227.68764814121823,502.9082455206776,1992.3660803393286,-230.43015336514463,1,2,5
11519,180,-411.953436876247,-797.1587104112086,-292.95424970371823,-367.1110415886974,-909.0870446606714,211.21803999423037,1,2,5
11520,184,-591.773749376247,-638.6624945908964,-606.1251481412182,-371.5365786980724,-2683.5401696606714,202.94777632235537,1,2,5
11521,188,-202.453436876247,-50.76686470808363,-566.0040543912182,217.7224545050526,-807.7432946606714,-107.94260453701963,1,2,5
11522,192,137.741875623753,166.67087943254137,-297.40249189121823,546.8740658331776,1917.8035803393286,-269.92575883389463,1,2,5
11523,220,-309.336249376247,-703.9742621690211,-250.75503095371823,-256.8498111199474,-252.97766966067138,156.92555952548037,1,2,5
11524,224,-621.097968126247,-723.3086127549586,-576.7999528287182,-447.9572329949474,-2707.6807946606714,228.45119429110537,1,2,5
11525,228,-280.750311876247,-158.21168892683363,-597.2960465787182,106.54472013005261,-1291.6964196606714,-57.53952836514463,1,2,5
11526,232,125.671563123753,226.97581107316637,-340.80971845371823,552.6855892706776,1672.7879553393286,-290.13181352139463,1,2,5
11527,236,-206.094061876247,-566.8463324815211,-219.35073407871823,-93.92793611994739,419.4598303393286,54.59914350985537,1,2,5
11528,240,-626.488593126247,-799.6174506455836,-533.4815934537182,-507.8600650261974,-2603.1964196606714,250.31105757235537,1,2,5
11529,244,-363.004218126247,-269.38942330183363,-627.7618668912182,-7.78438143244739,-1730.9151696606714,-7.493874068269633,1,2,5
11530,248,96.480156873753,251.02634818254137,-394.07436689121823,536.5923275519276,1268.0223303393286,-271.17746781826963,1,2,5
11531,252,-92.996405626247,-392.94972603620863,-191.88003095371823,90.22806973942761,1027.2879553393286,-5.906960005769633,1,2,5
11532,256,-607.508124376247,-846.1090277940211,-473.80288251621823,-520.7792544793224,-2396.1182946606714,264.99611616610537,1,2,5
11533,263,-436.297186876247,-372.76613228620863,-635.8976090787182,-112.07759432307239,-2101.9932946606714,27.978293900480367,1,2,5
11534,267,45.429375623753,215.57639701066637,-436.78823407871823,443.2737240363026,797.8660803393286,-246.99289750576963,1,2,5
11535,271,5.956719373753003,-215.47682564558363,-196.97671064121823,194.9683041144276,1551.1942053393286,-74.99607133389463,1,2,5
11536,275,-572.707343126247,-867.9243354112086,-423.95815595371823,-498.8075747918224,-2016.5245446606714,284.91164350985537,1,2,5
11537,279,-513.453436876247,-474.01955025495863,-625.1690934537182,-171.5556216668224,-2384.6807946606714,107.70705366610537,1,2,5
11538,283,-53.590155626247,133.36668021379137,-479.14467939121823,427.1357845831776,255.19420533932862,-209.86667680264463,1,2,5
11539,287,82.019219373753,-55.19264595808363,-200.55288251621823,390.1213802863026,1864.1785803393286,-169.14182328701963,1,2,5
11540,291,-487.168280626247,-839.3364447862086,-335.19936689121823,-467.8502994011974,-1476.9932946606714,256.43556929110537,1,2,5
11541,295,-563.902655626247,-568.2992133408964,-647.8331559537182,-293.8419986199474,-2570.4464196606714,151.89650679110537,1,2,5
11542,299,-128.625311876247,35.01902396379137,-551.6310075162182,318.4617123175526,-307.0401696606714,-188.09592484951963,1,2,5
11543,302,119.527031873753,83.25413138566637,-228.60366376621823,466.6538509894276,1986.2254553393286,-242.63425492764463,1,2,5
11544,306,-397.539374376247,-779.7914008408961,-263.49526532871823,-388.5463443230724,-879.4307946606714,253.44045210360537,1,2,5
11545,310,-605.230780626247,-652.3641547471461,-603.5772965787182,-391.0273013543224,-2693.8214196606714,206.99343061923037,1,2,5
11546,314,-214.297186876247,-56.60084908308363,-570.0489762662182,221.0527767706776,-846.1807946606714,-108.56858109951963,1,2,5
11547,318,143.171563123753,185.64744193254137,-283.05288251621823,560.6875423956776,1907.7723303393286,-266.88596391201963,1,2,5
11548,322,-292.304999376247,-676.8169135362086,-245.45717939121823,-209.7995181511974,-192.57141966067138,146.08498335360537,1,2,5
11549,326,-617.097968126247,-722.2804145127711,-590.4337418912182,-454.6627994011974,-2714.7901696606714,226.55129194735537,1,2,5
11550,330,-312.512030626247,-184.85499947370863,-602.5489762662182,95.74882169255261,-1357.0557946606714,-55.88547563076963,1,2,5
11551,334,117.714531873753,226.10422904191637,-350.89077314121823,573.3608822394276,1685.0379553393286,-297.46311234951963,1,2,5
11552,338,-187.543280626247,-535.9785346299586,-225.22866376621823,-114.69282869807239,490.8973303393286,61.72951460360537,1,2,5
11553,337,-633.906561876247,-795.9516791612086,-507.75503095371823,-499.5898013543224,-2594.8057946606714,274.13796186923037,1,2,5
11554,341,-370.804999376247,-272.78688423933363,-611.8243668912182,-15.62984041682239,-1744.8839196606714,17.964622025480367,1,2,5
11555,345,90.175469373753,239.17991263566637,-414.12319501621823,572.9809994269276,1266.6785803393286,-287.69529008389463,1,2,5
11556,349,-82.109686876247,-383.29372017683363,-186.24721845371823,78.38163419255261,1071.3973303393286,-21.106178755769633,1,2,5
11557,353,-613.789374376247,-843.7844428330836,-451.60757001621823,-514.1855044793224,-2330.0089196606714,279.32375288485537,1,2,5
11558,357,-449.082343126247,-385.52907173933363,-625.1466325162182,-90.77632479182239,-2074.4776696606714,37.43312788485537,1,2,5
11559,361,17.714531873753003,199.05857474504137,-425.81362470371823,480.1094173956776,768.9910803393286,-265.99192094326963,1,2,5
11560,365,13.554375623753003,-202.73634712995863,-188.28139814121823,242.3762630988026,1571.8192053393286,-88.94358109951963,1,2,5
11561,369,-572.484686876247,-873.5346869737086,-426.93081220371823,-540.2477603386974,-1950.5870446606714,291.63942671298037,1,2,5
11562,373,-510.660468126247,-473.23720162214613,-645.7101090787182,-208.1007876824474,-2395.0089196606714,109.76345015048037,1,2,5
11563,367,-38.902655626247,141.27927787004137,-498.61342939121823,396.1116146613026,216.56920533932862,-204.85984086514463,1,2,5
11564,371,77.792656873753,-39.59108345808363,-208.68862470371823,364.7297787238026,1887.9598303393286,-169.07468461514463,1,2,5
11565,375,-497.070624376247,-852.2557563096461,-329.03042157871823,-466.4867740105724,-1433.3214196606714,261.19631147860537,1,2,5
11566,379,-572.508124376247,-575.1836127549586,-625.5040543912182,-284.6107974480724,-2593.1807946606714,156.90309858798037,1,2,5
11567,383,-140.379218126247,30.14646537004137,-544.0538590787182,298.7251400519276,-372.1339196606714,-153.33908891201963,1,2,5
11568,387,120.573906873753,81.71189505754137,-255.33706220371823,487.3066830206776,2009.7410803393286,-245.31638383389463,1,2,5
11569,391,-394.476874376247,-775.9245795518336,-282.53921064121823,-366.9545474480724,-790.6495446606714,218.03517866610537,1,2,5
11570,395,-603.687811876247,-654.2417182237086,-603.6886247037182,-367.9604068230724,-2680.1964196606714,203.01491499423037,1,2,5
11571,399,-222.590155626247,-72.31398384870863,-564.9083512662182,213.6096615363026,-866.7901696606714,-115.05051469326963,1,2,5
11572,403,138.210625623753,184.66404349504137,-292.39565595371823,550.9421810675526,1924.4910803393286,-280.49802445889463,1,2,5
11573,396,-295.234686876247,-674.0453070908964,-238.12612470371823,-229.0890689324474,-119.38391966067138,137.41237593173037,1,2,5
11574,400,-632.074530626247,-738.0160102158961,-570.6300309537182,-489.1962466668224,-2691.1651696606714,244.25368452548037,1,2,5
11575,404,-304.039374376247,-192.05226509870863,-625.6153825162182,70.06669278630261,-1374.6339196606714,-52.42087602139463,1,2,5
11576,408,117.222344373753,226.90891654191637,-340.89956220371823,580.3347591925526,1656.7567053393286,-284.52146195889463,1,2,5
11577,412,-199.121405626247,-550.5965766221461,-191.83510907871823,-67.15059236994739,559.1160803393286,49.45827436923037,1,2,5
11578,416,-644.457343126247,-817.9904975205836,-518.0372575162182,-541.2086978386974,-2570.1339196606714,260.97292280673037,1,2,5
11579,420,-382.719061876247,-275.37965767683363,-589.5626481412182,3.7937435675526103,-1767.3682946606714,15.818870072355367,1,2,5
11580,424,76.519219373753,240.20798880754137,-382.83120282871823,543.4097103644276,1233.0379553393286,-264.80710649014463,1,2,5
11581,428,-72.519843126247,-363.06544869245863,-202.34096845371823,95.23490567692761,1156.2098303393286,-21.799049849519633,1,2,5
11582,432,-609.008124376247,-846.2655219346461,-472.79702314121823,-548.5402408074474,-2316.8214196606714,268.01369429110537,1,2,5
11583,448,-457.910468126247,-380.25392525495863,-636.4112809537182,-129.6461978386974,-2140.9151696606714,49.32424116610537,1,2,5
11584,452,-6.000311876246997,186.31809622941637,-459.58706220371823,456.3496517706776,709.0067053393286,-230.49729203701963,1,2,5
11585,456,23.347344373753003,-183.93873970808363,-195.99331220371823,225.4336361456776,1626.2723303393286,-81.16526078701963,1,2,5
11586,460,-568.148749376247,-868.5948676377711,-394.81167157871823,-542.9298892449474,-1892.1339196606714,270.67360640048037,1,2,5
11587,464,-521.187811876247,-491.72218697370863,-614.4171403287182,-160.9162173699474,-2383.6026696606714,87.07643843173037,1,2,5
11588,468,-72.476874376247,113.87595755754137,-496.93667157871823,393.3176693488026,178.36608033932862,-210.09006547451963,1,2,5
11589,472,85.327813123753,-25.19655220808363,-215.01382001621823,400.9394955206776,1924.5535803393286,-181.72580766201963,1,2,5
11590,476,-494.765936876247,-842.0186957627711,-346.73257001621823,-465.2799869011974,-1372.7276696606714,237.70485640048037,1,2,5
11591,480,-572.887030626247,-574.4459418565211,-634.3106950162182,-317.6689029168224,-2600.5714196606714,154.39968061923037,1,2,5
11592,484,-149.590155626247,19.77512747941637,-531.9171403287182,297.0039486456776,-410.2901696606714,-155.75290727139463,1,2,5
11593,477,116.710625623753,91.54661185441637,-248.94448407871823,479.2153744269276,1982.5379553393286,-233.44773149014463,1,2,5
11594,481,-400.957343126247,-784.7087592393336,-282.87417157871823,-342.1889224480724,-760.2901696606714,215.97878218173037,1,2,5
11595,485,-612.539374376247,-667.4738959580836,-605.5440934537182,-435.6190982293224,-2742.4932946606714,215.19655561923037,1,2,5
11596,489,-262.422186876247,-99.58302681745863,-574.8995622037182,143.4697689581776,-950.0557946606714,-94.62107133389463,1,2,5
11597,493,117.847344373753,185.73679740129137,-285.26577314121823,586.0791439581776,1882.6942053393286,-260.64963578701963,1,2,5
11598,497,-285.621405626247,-656.0298041612086,-215.75210126621823,-210.2687564324474,-61.14954466067138,137.70314741610537,1,2,5
11599,501,-632.164374376247,-737.5243109971461,-552.5479997037182,-464.8329654168224,-2694.9932946606714,235.71535444735537,1,2,5
11600,505,-319.418280626247,-191.33693306745863,-602.6603043912182,81.53324552067761,-1418.7276696606714,-33.19846391201963,1,2,5
11601,509,103.523125623753,223.89133841691637,-348.70034345371823,560.7993588019276,1628.0379553393286,-298.62546586514463,1,2,5
11602,513,-177.976874376247,-519.5724067002711,-201.62514814121823,-60.42280916682239,622.4754553393286,50.57595015048037,1,2,5
11603,508,-637.820624376247,-811.3073920518336,-520.1603043912182,-530.6139712761974,-2569.9151696606714,278.00490522860537,1,2,5
11604,512,-393.828436876247,-297.88771431745863,-612.7413590787182,-7.09151033869739,-1796.0245446606714,4.263206009855367,1,2,5
11605,516,58.659844373753,226.99827201066637,-399.70620282871823,524.0754818488026,1207.9129553393286,-281.66037797451963,1,2,5
11606,520,-68.566718126247,-357.29884712995863,-197.19936689121823,90.33988614567761,1208.2098303393286,-34.51706742764463,1,2,5
11607,524,-605.789374376247,-857.4637641221461,-462.26870282871823,-570.6459536980724,-2294.3370446606714,271.09816694735537,1,2,5
11608,528,-474.515936876247,-402.89625923933363,-627.1583512662182,-146.6557193230724,-2138.7276696606714,64.70217085360537,1,2,5
11609,532,-10.226874376246997,173.80100638566637,-452.45717939121823,488.2007259894276,689.4442053393286,-267.75754594326963,1,2,5
11610,536,11.476250623753003,-192.74513619245863,-199.45717939121823,273.1099056769276,1680.8504553393286,-151.64035844326963,1,2,5
11611,540,-580.308905626247,-888.7114447862086,-419.06362470371823,-523.1708560418224,-1847.1651696606714,271.65700483798037,1,2,5
11612,544,-572.285468126247,-544.2487983018336,-721.4376481412182,-230.8100161980724,-2411.0714196606714,109.98683882235537,1,2,5
11613,553,-112.172186876247,75.94504935441637,-576.1739762662182,340.5005306769276,119.83483033932862,-207.29612016201963,1,2,5
11614,557,68.249688123753,-41.87086861433363,-237.05288251621823,359.6782650519276,1952.1317053393286,-214.51584672451963,1,2,5
11615,561,-545.887030626247,-896.4228705674586,-420.78432782871823,-492.8620181511974,-1322.1182946606714,236.27419233798037,1,2,5
11616,565,-649.508124376247,-650.9782904893336,-722.8233903287182,-343.7980533074474,-2602.7432946606714,160.97121382235537,1,2,5
11617,569,-208.910468126247,-35.96998970808363,-611.9366715787182,262.6716732550526,-396.7901696606714,-182.46335649014463,1,2,5
11618,573,27.995781873753003,-4.051776817458631,-414.45913251621823,391.0154232550526,2065.7567053393286,-370.50852250576963,1,2,5
11619,577,-563.051093126247,-944.2778510362086,-549.0831559537182,-468.8114810418224,-726.3839196606714,92.08303022860537,1,2,5
11620,581,-776.176093126247,-815.7777289658961,-850.8985856412182,-511.6149478386974,-2765.3057946606714,164.54738569735537,1,2,5
11621,585,-313.137030626247,-143.39259712995863,-695.6661637662182,63.29423184880261,-954.8370446606714,-119.27487992764463,1,2,5
11622,589,44.847344373753,110.25510794816637,-413.45327314121823,496.4263119269276,1934.1160803393286,-433.71921586514463,1,2,5
11623,585,-477.355780626247,-794.8564643174586,-458.84975751621823,-351.7553286980724,-23.80579466067138,1.9162821817303666,1,2,5
11624,589,-767.191718126247,-819.3093451768336,-669.6261247037182,-555.4245181511974,-2739.6026696606714,256.79323530673037,1,2,5
11625,593,-380.840155626247,-211.38649361433363,-575.0333512662182,131.1316341925526,-1368.5089196606714,-66.81540727139463,1,2,5
11626,597,-85.933905626247,82.33762747941637,-539.2042497037182,542.5378841925526,1649.5692053393286,-434.00998734951963,1,2,5
