,time,ch1,ch2,ch3,ch4,ch5,ch6,tag,ID,Repeticion
5481,0,-259.0763429226063,29.683391376813915,-274.9907316064164,-233.83598622867885,-1611.8143139001913,149.94641883989925,2,2,3
5482,3,239.45490707739373,653.2971609080639,-129.16846598141638,338.83808603694615,657.4981860998087,-190.13536826947575,2,2,3
5483,7,363.2830320773937,442.4531667674389,141.31004964358362,386.13422861507115,2124.8888110998087,-180.14415733197575,2,2,3
5484,11,-284.0450929226063,-371.1728097950611,-4.803231606416375,-395.10380849430385,-798.9549389001913,305.89466102739925,2,2,3
5485,15,-334.3341554226063,-74.69917698256108,-292.0903409814164,-292.01762685367885,-1819.2986889001913,213.80554969927425,2,2,3
5486,19,141.40021957739373,548.5569265330639,-194.90479410641638,262.93134775569615,169.38881109980866,-141.18492881635075,2,2,3
5487,24,408.3220945773937,578.5305593455639,89.90184651858362,466.57807627132115,2230.8106860998087,-247.15465537885075,2,2,3
5488,27,-186.99431167260627,-316.3886301075611,36.525869956083625,-305.49565419742885,-245.15806390019134,242.01331337114925,2,2,3
5489,31,-383.0411866726063,-167.16841526381108,-269.5590909814164,-381.29057607242885,-1908.5174389001913,255.82678993364925,2,2,3
5490,35,53.28693832739373,447.2810476268139,-218.30713785641638,138.65571299007115,-323.09556390019134,-60.27159873822575,2,2,3
5491,48,433.9158445773937,695.9219167674389,59.525869956083625,550.1291016619462,2154.7169360998087,-285.10778037885075,2,2,3
5492,52,-78.69743667260627,-216.63277073256108,84.76024495608362,-170.69243154117885,350.40443609980866,154.19324501177425,2,2,3
5493,56,-407.6700929226063,-247.43355198256108,-229.54932535641638,-434.17485341617885,-1898.1893139001913,289.46595008989925,2,2,3
5494,60,-36.07243667260627,337.5339773143139,-254.42725504391638,59.79877939632115,-746.3768139001913,-4.861686628850748,2,2,3
5495,64,417.8885008273937,749.9907644236889,1.3657137060836249,524.6479004900712,1905.4513110998087,-282.42565147260075,2,2,3
5496,68,50.40412582739373,-66.89851780287358,122.62450276858362,-48.74125966617885,911.4044360998087,78.39856727739925,2,2,3
5497,72,-422.2443116726063,-324.2340890919361,-196.64795816891638,-476.39726552555385,-1786.5330639001913,317.80823524614925,2,2,3
5498,76,-118.25993667260627,225.77518825181392,-274.8569425439164,-36.67143544742885,-1087.2205639001913,41.69690712114925,2,2,3
5499,80,378.8181883273937,763.0442312205639,-45.394051918916375,494.56269541194615,1554.0606860998087,-270.73571006635075,2,2,3
5500,84,170.70100082739373,107.57914332993892,135.61083089358362,117.28754892757115,1469.4200610998087,-18.026725691350748,2,2,3
5501,77,-400.6075929226063,-370.7928049122486,-135.00147379391638,-483.25908193180385,-1567.5330639001913,330.48157508989925,2,2,3
5502,81,-205.94743667260627,118.59867457993892,-302.3715909814164,-134.48247060367885,-1427.6736889001913,107.72400673052425,2,2,3
5503,85,309.1267820773937,717.1113698924389,-98.56885660641638,425.98750009944615,1113.4200610998087,-241.38780967572575,2,2,3
5504,89,284.0720945773937,285.6333425486889,146.60790120608362,256.42719736507115,1912.4356860998087,-116.48619834760075,2,2,3
5505,93,-349.1779054226063,-385.9248849903736,-69.80127848141638,-459.27568349430385,-1215.4080639001913,311.41565712114925,2,2,3
5506,97,-266.5646241726063,32.589153095563915,-301.6118253564164,-234.14897450992885,-1681.5799389001913,161.63636024614925,2,2,3
5507,101,218.57990707739373,645.6081960643139,-166.76319254391638,353.76899424007115,593.3888110998087,-211.79405967572575,2,2,3
5508,105,371.2205320773937,460.9602468455639,141.42235433108362,390.85053720882115,2135.4356860998087,-199.36656944135075,2,2,3
5509,109,-267.9747804226063,-362.3885080372486,4.696768393583625,-415.48881825992885,-746.5174389001913,272.65760048052425,2,2,3
5510,113,-332.7716554226063,-66.02669163099881,-294.8169034814164,-289.89433583805385,-1826.2830639001913,223.14856727739925,2,2,3
5511,114,144.07990707739373,559.0173757518139,-175.45850504391638,250.05683603694615,89.24818609980866,-103.67882530072575,2,2,3
5512,118,430.7439695773937,616.3721120799389,104.31786214358362,449.21088877132115,2209.6700610998087,-230.32360069135075,2,2,3
5513,122,-182.54509292260627,-308.2301828419361,48.550284018583625,-272.61625966617885,-181.87681390019134,218.90174110552425,2,2,3
5514,126,-391.4669679226063,-175.50557346693608,-257.7348722314164,-380.70927724430385,-1918.7674389001913,242.66150673052425,2,2,3
5515,130,40.05646957739373,438.4968679393139,-231.06983316891638,155.03950205257115,-375.87681390019134,-68.65343467572575,2,2,3
5516,134,430.6541258273937,709.6904714549389,61.112784018583625,542.3505372088212,2137.6700610998087,-274.96007530072575,2,2,3
5517,138,-58.60368667260627,-185.65327854506108,98.68602620608362,-163.83037099430385,412.93568609980866,155.89197548052425,2,2,3
5518,142,-408.9904054226063,-250.24983616224858,-226.53174723141638,-439.38261708805385,-1885.9549389001913,288.23694618364925,2,2,3
5519,146,-58.20134292260627,314.9363210643139,-259.4790128564164,32.86494150569615,-778.8768139001913,-22.027702253850748,2,2,3
5520,150,422.2283445773937,766.2851980174389,19.560049643583625,535.6674317400712,1892.8888110998087,-281.41979209760075,2,2,3
5521,152,77.24787582739373,-27.671100810686085,136.79540120608362,-13.291308494303848,1015.7638110998087,77.23621376177425,2,2,3
5522,156,-411.5607179226063,-314.1310617481861,-179.10205973141638,-483.46025380680385,-1789.4705639001913,334.61682899614925,2,2,3
5523,160,-129.77165542260627,225.10477809556392,-274.4096769189164,-51.13286122867885,-1166.7986889001913,47.79895790239925,2,2,3
5524,164,368.8963133273937,759.8479421580639,-56.569833168916375,491.70161142757115,1505.2013110998087,-295.45665733197575,2,2,3
5525,168,189.97053207739373,131.65214137681392,130.44774495608362,124.55170908382115,1508.8888110998087,-48.33580772260075,2,2,3
5526,172,-392.4708741726063,-361.8744699513111,-133.25830973141638,-508.67314443180385,-1565.0799389001913,341.88098915239925,2,2,3
5527,176,-229.95134292260627,115.40238551743892,-295.1069425439164,-113.18144521305385,-1433.2986889001913,115.12244423052425,2,2,3
5528,180,307.9861570773937,724.0627859080639,-82.43018473141638,439.06318369319615,1044.3263110998087,-243.26549522260075,2,2,3
5529,184,309.7752195773937,336.7292898143139,162.67919026858362,268.56416025569615,1903.4513110998087,-106.71862022260075,2,2,3
5530,188,-341.9786866726063,-375.5536691700611,-80.26221598141638,-511.86943349430385,-1184.1736889001913,331.62171180864925,2,2,3
5531,195,-284.6700929226063,12.964275165876415,-301.8354581689164,-204.35405263492885,-1687.7205639001913,162.12830360552425,2,2,3
5532,199,222.08771957739373,651.3972585643139,-135.56104410641638,358.75336924007115,542.7638110998087,-195.07506553510075,2,2,3
5533,203,378.8845945773937,495.4267995799389,134.00145589358362,395.49970713069615,2165.2950610998087,-200.30529014447575,2,2,3
5534,207,-275.1700929226063,-363.3273508106861,-16.783700356416375,-405.56450185367885,-685.6268139001913,276.32337196489925,2,2,3
5535,211,-360.2872804226063,-96.42512913099881,-295.5092862939164,-308.46855458805385,-1860.0486889001913,214.05139930864925,2,2,3
5536,215,110.68928207739373,534.9221609080639,-197.20655191891638,250.01215830257115,14.045061099808663,-131.66320030072575,2,2,3
5537,219,427.1892820773937,635.0134695018139,105.36864339358362,514.1874512713212,2247.6856860998087,-253.94957725385075,2,2,3
5538,223,-165.31071792260627,-281.1846506153736,59.123526206083625,-271.56572255680385,-104.87681390019134,230.18933876177425,2,2,3
5539,227,-390.0138429226063,-175.21504612318608,-271.5483487939164,-394.20976552555385,-1937.3299389001913,264.02991493364925,2,2,3
5540,231,39.04865707739373,442.3413503611889,-214.32862223141638,131.86079111507115,-425.00181390019134,-58.50597373822575,2,2,3
5541,223,442.2088133273937,732.6904714549389,63.392080893583625,525.7655762713212,2110.6075610998087,-274.96007530072575,2,2,3
5542,227,-47.24821792260627,-170.14119358412358,98.77489339358362,-152.98979482242885,477.24818609980866,138.97180946489925,2,2,3
5543,231,-425.8888429226063,-262.4091379200611,-231.65088785641638,-432.72197255680385,-1904.8611889001913,295.94788368364925,2,2,3
5544,235,-57.70915542260627,324.8159597361889,-264.2846769189164,45.20307627132115,-838.3924389001913,-7.052116316350748,2,2,3
5545,239,424.2830320773937,774.1306570018139,2.170401206083625,531.0182618181962,1839.7481860998087,-289.60045616010075,2,2,3
5546,243,84.82600082739373,-11.533161357561085,129.12840901858362,1.9972657244461516,1056.0450610998087,61.88074501177425,2,2,3
5547,247,-422.6232179226063,-331.9230539356861,-181.18018473141638,-509.00834950992885,-1768.9705639001913,313.67298133989925,2,2,3
5548,251,-146.15446792260627,217.32621364243892,-281.6294034814164,-99.61381825992885,-1204.3455639001913,42.97107704302425,2,2,3
5549,255,377.2322508273937,783.4289968455639,-49.617684731416375,519.1718262713212,1453.5450610998087,-267.71813194135075,2,2,3
5550,259,200.69709457739373,163.77152614243892,133.80028401858362,185.23676767757115,1573.7794360998087,-38.54576866010075,2,2,3
5551,267,-406.3732179226063,-373.5420724903736,-138.80127848141638,-476.57597646305385,-1509.2049389001913,322.03235633989925,2,2,3
5552,271,-213.07634292260627,113.18949489243892,-290.3462003564164,-173.79936513492885,-1511.1893139001913,127.25940712114925,2,2,3
5553,275,292.9666258273937,720.0171316111889,-117.07569254391638,414.36445322444615,994.2638110998087,-230.50255576947575,2,2,3
5554,279,306.3767820773937,342.2056081736889,149.08934651858362,333.31708994319615,1969.7638110998087,-132.02062217572575,2,2,3
5555,283,-353.4005616726063,-392.5409738575611,-73.55713785641638,-449.32915029117885,-1125.8455639001913,313.42737587114925,2,2,3
5556,287,-297.3654054226063,2.4590261424389155,-288.4467862939164,-247.67192372867885,-1737.8768139001913,173.37122352739925,2,2,3
5557,291,218.71271957739373,646.6587331736889,-136.61084879391638,315.92744150569615,496.26381109980866,-174.95836631635075,2,2,3
5558,295,389.0564695773937,521.7124441111889,133.26415120608362,426.92622080257115,2189.1231860998087,-192.61632530072575,2,2,3
5559,299,-273.7169679226063,-359.4157297169361,-1.6958097314163751,-380.44121083805385,-649.5799389001913,279.69837196489925,2,2,3
5560,303,-354.0724366726063,-92.17830295912358,-280.9360441064164,-313.40825185367885,-1848.0955639001913,224.10950477739925,2,2,3
5561,296,124.20881332739373,545.5618093455639,-189.47315348141638,240.71381845882115,15.279436099808663,-121.96251670697575,2,2,3
5562,300,424.2166258273937,641.1601980174389,91.06395589358362,495.32246103694615,2227.6544360998087,-272.56847373822575,2,2,3
5563,304,-159.18571792260627,-277.2506906544361,60.263174643583625,-275.25395497867885,-65.62681390019134,200.43909462114925,2,2,3
5564,308,-394.7521241726063,-175.52791233412358,-259.5014737939164,-397.85307607242885,-1924.9236889001913,278.51380165239925,2,2,3
5565,312,17.747875827393727,427.8350027049389,-239.27295816891638,114.33710947444615,-465.86118890019134,-41.63024131635075,2,2,3
5566,316,425.3103758273937,731.0588796580639,26.354971518583625,496.30610361507115,2087.2638110998087,-266.53356162885075,2,2,3
5567,320,-19.353686672606273,-135.29475803724858,115.38231526858362,-129.94511708805385,522.5763110998087,139.77649696489925,2,2,3
5568,324,-416.3888429226063,-252.99910374037358,-218.28467691891638,-424.16118154117885,-1887.6111889001913,297.66907508989925,2,2,3
5569,328,-68.90837417260627,309.5273855174389,-272.5766691064164,42.67744150569615,-866.9236889001913,-1.620719831975748,2,2,3
5570,332,402.1306883273937,764.3406179393139,-31.334481606416375,514.0756348650712,1808.5763110998087,-298.76476280072575,2,2,3
5571,342,88.78303207739373,2.9954030955639155,122.22215901858362,18.85029306819615,1108.5919360998087,18.607551652399252,2,2,3
5572,346,-408.6779054226063,-309.4595529591236,-173.69288004391638,-497.29619130680385,-1781.8455639001913,325.49720008989925,2,2,3
5573,350,-152.18962417260627,217.68387965806392,-262.7866300439164,-68.27666005680385,-1261.9861889001913,94.00012977739925,2,2,3
5574,354,347.2595945773937,753.5000417674389,-44.499520668916375,504.15156259944615,1416.7794360998087,-262.17491905072575,2,2,3
5575,358,196.16193832739373,169.27006129868892,131.81102620608362,157.90058603694615,1611.5763110998087,-49.87804405072575,2,2,3
5576,362,-402.3302491726063,-365.4954416309986,-126.08350504391638,-492.80327138492885,-1496.8768139001913,313.49427040239925,2,2,3
5577,366,-232.70134292260627,105.27714137681392,-289.6762784814164,-152.31914052555385,-1523.4549389001913,117.67053993364925,2,2,3
5578,370,286.5720945773937,724.2192800486889,-107.53174723141638,415.72797861507115,916.9200610998087,-228.96031944135075,2,2,3
5579,374,308.3650633273937,364.9148366893139,151.01122151858362,306.11494150569615,1938.8419360998087,-147.26451866010075,2,2,3
5580,378,-336.0333741726063,-372.0445138966236,-48.231942543916375,-470.89873036930385,-1085.0018139001913,322.79261024614925,2,2,3
5581,371,-300.3380616726063,4.1577566111889155,-295.7104581689164,-232.80791005680385,-1728.7986889001913,196.30408485552425,2,2,3
5582,375,194.93146957739373,634.8791921580639,-152.23487223141638,336.78168955257115,430.43568609980866,-178.28893272260075,2,2,3
5583,379,383.4470945773937,529.8259695018139,129.79930745608362,428.96015634944615,2170.9200610998087,-209.33531944135075,2,2,3
5584,383,-265.8497804226063,-346.9657785450611,-2.321786293916375,-412.00175771305385,-598.5174389001913,275.42932899614925,2,2,3
5585,387,-362.5646241726063,-100.53780002943608,-302.7514737939164,-333.23417958805385,-1872.3924389001913,217.80652626177425,2,2,3
5586,391,97.99396957739373,526.7414968455639,-197.60889566891638,251.28608408382115,-50.72056390019134,-119.01207725385075,2,2,3
5587,395,414.6697508273937,650.8830984080639,78.59129964358362,506.18549814632115,2210.6075610998087,-263.13610069135075,2,2,3
5588,399,-148.81462417260627,-249.80281467787358,60.732901206083625,-255.51738271305385,-13.798688900191337,202.60730751177425,2,2,3
5589,403,-403.8927491726063,-183.66402073256108,-274.5434659814164,-391.68413075992885,-1951.9236889001913,272.18811805864925,2,2,3
5590,407,13.904125827393727,419.8555105174389,-239.04932535641638,140.42158213069615,-525.1424389001913,-56.20372764447575,2,2,3
5591,414,424.8181883273937,736.6914480174389,41.241690268583625,534.1698731463212,2081.9044360998087,-290.87462608197575,2,2,3
5592,418,-45.59587417260627,-142.91670627943608,90.01317464358362,-136.65068349430385,582.5606860998087,123.95154579302425,2,2,3
5593,422,-433.3536866726063,-264.1973459278736,-207.04151285641638,-463.14262685367885,-1920.4080639001913,302.31848915239925,2,2,3
5594,426,-80.52946792260627,301.2346609080639,-252.14698160641638,3.8524903338211516,-944.7986889001913,6.381233293024252,2,2,3
5595,430,389.4158445773937,767.4028737986889,-9.049325356416375,528.5819825213212,1754.5138110998087,-293.13219444135075,2,2,3
5596,434,86.45881332739373,18.865154072126415,135.45458089358362,42.92329111507115,1140.3263110998087,35.57263954302425,2,2,3
5597,438,-441.3771241726063,-345.7812082325611,-177.53760660641638,-487.21538075992885,-1750.9549389001913,318.25501258989925,2,2,3
5598,442,-188.17790542260627,171.37113551743892,-305.1879972314164,-121.20561513492885,-1295.2049389001913,71.31311805864925,2,2,3
5599,446,324.2595945773937,745.9451101268139,-84.03955973141638,415.21381845882115,1304.5138110998087,-255.13414756635075,2,2,3
5600,450,177.92365707739373,173.42753200181392,108.56493245608362,218.20551767757115,1591.0763110998087,-70.21813194135075,2,2,3
5601,495,-445.9825929226063,-424.6381418263111,-180.51026285641638,-478.96757802555385,-1489.0330639001913,305.87220008989925,2,2,3
5602,499,-288.3341554226063,43.072185322126415,-346.9858487939164,-175.76616200992885,-1572.5486889001913,114.94373329302425,2,2,3
5603,503,249.47053207739373,689.5740163768139,-134.84522379391638,400.77460947444615,853.7794360998087,-229.07213584760075,2,2,3
5604,507,281.2322508273937,350.6545827830639,110.12938558108362,320.46479502132115,1973.2481860998087,-154.88658897260075,2,2,3
5605,511,-382.8614991726063,-422.2912179981861,-101.16163004391638,-458.87333974430385,-1079.1268139001913,286.42639930864925,2,2,3
5606,515,-367.8185304226063,-61.735187724748585,-373.7856534814164,-290.05082997867885,-1773.3299389001913,154.28284462114925,2,2,3
5607,519,69.20490707739373,504.5461843455639,-319.0463956689164,257.20942392757115,359.92006109980866,-213.15758506635075,2,2,3
5608,523,270.0564695773937,444.3083913768139,-19.286630043916375,387.29658213069615,2172.8419360998087,-246.79698936322575,2,2,3
5609,527,-282.9943116726063,-358.5440256153736,-3.819833168916375,-377.06596669742885,-555.0174389001913,253.23401649614925,2,2,3
5610,531,-381.8341554226063,-97.65449924818608,-296.4926847314164,-367.29838857242885,-1909.6893139001913,215.54895790239925,2,2,3
5611,543,49.26350082739373,491.4258230174389,-248.99561441891638,224.95576181819615,-170.97056390019134,-135.37340537885075,2,2,3
5612,547,315.8103758273937,566.3489187205639,-37.570809731416375,505.87250986507115,2203.5606860998087,-309.76183311322575,2,2,3
5613,551,-259.3888429226063,-376.0454904591236,-98.81397379391638,-296.24223622867885,65.65443609980866,154.59558876177425,2,2,3
5614,555,-516.1232179226063,-344.0824777638111,-402.9096769189164,-476.30791005680385,-1925.7205639001913,235.10657508989925,2,2,3
5615,559,-89.20524917260627,337.9363210643139,-346.6284269189164,91.85126963069615,-592.1580639001913,-78.08605186322575,2,2,3
5616,563,377.0760008273937,730.4775808299389,-30.753426918916375,492.12617197444615,1999.2638110998087,-289.33238975385075,2,2,3
5617,567,-72.81853042260627,-162.1839181934988,19.448721518583625,-141.63505849430385,609.1700610998087,81.81848915239925,2,2,3
5618,571,-527.2521241726063,-408.3213693653736,-346.6723722314164,-546.0676756818038,-1889.2674389001913,225.00379188677425,2,2,3
5619,575,-191.68571792260627,199.44486598618892,-432.9506925439164,-30.36821279117885,-956.6893139001913,-47.19591514447575,2,2,3
5620,579,288.3377195773937,686.7800710643139,-196.08936441891638,477.66474619319615,1718.1231860998087,-349.88317100385075,2,2,3
5621,572,10.240063327393727,-54.537922099748585,-40.677255043916375,-23.14848622867885,1156.3419360998087,-8.415641706975748,2,2,3
5622,576,-455.7950929226063,-344.2388498341236,-181.38135660641638,-515.1104002911788,-1720.7830639001913,328.53675087114925,2,2,3
5623,580,-219.62712417260627,118.64335231431392,-294.7719816064164,-107.50395497867885,-1256.6736889001913,86.71350868364925,2,2,3
5624,584,260.3103758273937,639.4614675486889,-134.51026285641638,409.53657236507115,1363.8888110998087,-272.23326866010075,2,2,3
5625,588,54.63068832739373,-7.3086740528735845,-28.942880043916375,41.15742197444615,1770.5606860998087,-164.20714561322575,2,2,3
5626,592,-624.9513429226063,-634.9232980763111,-410.6215909814164,-619.7837401349288,-1508.5799389001913,246.39417274614925,2,2,3
5627,596,-505.5060304226063,-225.50642795912358,-576.0463956689164,-334.82133779117885,-1523.6424389001913,116.28479774614925,2,2,3
5628,600,-39.75993667260627,360.1763112986889,-455.1909269189164,237.76337900569615,758.5606860998087,-304.24083701947575,2,2,3
5629,604,53.33381332739373,145.91239528306392,-127.08936441891638,242.34541025569615,2004.0294360998087,-320.02135459760075,2,2,3
5630,608,-511.0489991726063,-537.0003244434986,-121.92627848141638,-521.9499999005538,-905.1580639001913,281.24085243364925,2,2,3
5631,618,-449.9161866726063,-159.68050022474858,-319.9174894189164,-362.35869130680385,-1669.6580639001913,231.08338173052425,2,2,3
5632,622,-52.27946792260627,335.7905691111889,-356.6860441064164,206.98505869319615,380.21693609980866,-183.60851280072575,2,2,3
5633,626,33.06037582739373,149.82401637681392,-248.77198160641638,278.21992197444615,2157.3419360998087,-345.59166709760075,2,2,3
5634,630,-651.6622804226063,-693.6861154591236,-335.1840909814164,-454.53715810367885,-532.1424389001913,168.16321571489925,2,2,3
